Time_sec,ECG_mV
0,1.0621
0.0039063,0.91545
0.0078125,0.84301
0.011719,0.80213
0.015625,0.80529
0.019531,0.89057
0.023438,0.98816
0.027344,1.0812
0.03125,1.1848
0.035156,1.2267
0.039063,1.2275
0.042969,1.2323
0.046875,1.2228
0.050781,1.2129
0.054688,1.2227
0.058594,1.2174
0.0625,1.2092
0.066406,1.2057
0.070313,1.211
0.074219,1.2031
0.078125,1.1894
0.082031,1.1871
0.085938,1.1821
0.089844,1.2001
0.09375,1.1949
0.097656,1.1952
0.10156,1.2013
0.10547,1.1999
0.10938,1.1869
0.11328,1.1602
0.11719,1.1665
0.12109,1.1831
0.125,1.1891
0.12891,1.1809
0.13281,1.1822
0.13672,1.1841
0.14063,1.1628
0.14453,1.1525
0.14844,1.14
0.15234,1.1779
0.15625,1.1957
0.16016,1.1888
0.16406,1.19
0.16797,1.2088
0.17188,1.2286
0.17578,1.2326
0.17969,1.2474
0.18359,1.2766
0.1875,1.281
0.19141,1.2914
0.19531,1.3036
0.19922,1.3135
0.20313,1.3393
0.20703,1.3672
0.21094,1.3733
0.21484,1.3859
0.21875,1.4077
0.22266,1.3885
0.22656,1.3718
0.23047,1.3666
0.23438,1.3772
0.23828,1.3863
0.24219,1.3696
0.24609,1.3566
0.25,1.3515
0.25391,1.3372
0.25781,1.2978
0.26172,1.2599
0.26563,1.2245
0.26953,1.1457
0.27344,1.0833
0.27734,1.0364
0.28125,0.97528
0.28516,0.91661
0.28906,0.86563
0.29297,0.84461
0.29688,0.80157
0.30078,0.74183
0.30469,0.72886
0.30859,0.67713
0.3125,0.6822
0.31641,0.70209
0.32031,0.68494
0.32422,0.63026
0.32813,0.60577
0.33203,0.61658
0.33594,0.64776
0.33984,0.62879
0.34375,0.58194
0.34766,0.56008
0.35156,0.55838
0.35547,0.58038
0.35938,0.57039
0.36328,0.58791
0.36719,0.58398
0.37109,0.57317
0.375,0.54724
0.37891,0.51464
0.38281,0.50213
0.38672,0.49225
0.39063,0.51249
0.39453,0.49179
0.39844,0.49882
0.40234,0.48664
0.40625,0.48704
0.41016,0.47601
0.41406,0.48116
0.41797,0.48174
0.42188,0.44514
0.42578,0.44767
0.42969,0.47266
0.43359,0.45109
0.4375,0.4548
0.44141,0.46187
0.44531,0.48534
0.44922,0.48728
0.45313,0.48075
0.45703,0.47086
0.46094,0.43158
0.46484,0.4015
0.46875,0.41342
0.47266,0.41839
0.47656,0.41242
0.48047,0.38262
0.48438,0.36893
0.48828,0.38802
0.49219,0.40333
0.49609,0.40121
0.5,0.39768
0.50391,0.36246
0.50781,0.34213
0.51172,0.34007
0.51563,0.34844
0.51953,0.35049
0.52344,0.32863
0.52734,0.29476
0.53125,0.28739
0.53516,0.27753
0.53906,0.26799
0.54297,0.27356
0.54688,0.27808
0.55078,0.2716
0.55469,0.27142
0.55859,0.28527
0.5625,0.26713
0.56641,0.26034
0.57031,0.24768
0.57422,0.22329
0.57813,0.23484
0.58203,0.23828
0.58594,0.23858
0.58984,0.23524
0.59375,0.20718
0.59766,0.20664
0.60156,0.20858
0.60547,0.1887
0.60938,0.17202
0.61328,0.17831
0.61719,0.19826
0.62109,0.19603
0.625,0.18006
0.62891,0.14825
0.63281,0.16472
0.63672,0.15273
0.64063,0.17986
0.64453,0.19015
0.64844,0.18576
0.65234,0.18817
0.65625,0.19646
0.66016,0.15761
0.66406,0.11936
0.66797,0.1607
0.67188,0.14993
0.67578,0.13745
0.67969,0.13142
0.68359,0.15348
0.6875,0.18746
0.69141,0.16623
0.69531,0.16162
0.69922,0.14377
0.70313,0.13691
0.70703,0.14255
0.71094,0.11837
0.71484,0.13655
0.71875,0.16118
0.72266,0.1567
0.72656,0.1402
0.73047,0.1373
0.73438,0.12836
0.73828,0.10661
0.74219,0.10307
0.74609,0.11953
0.75,0.12874
0.75391,0.1304
0.75781,0.11738
0.76172,0.14456
0.76563,0.17508
0.76953,0.199
0.77344,0.18169
0.77734,0.16743
0.78125,0.15912
0.78516,0.16288
0.78906,0.18174
0.79297,0.19861
0.79688,0.21897
0.80078,0.23561
0.80469,0.23323
0.80859,0.20102
0.8125,0.1798
0.81641,0.16524
0.82031,0.1567
0.82422,0.16268
0.82813,0.11784
0.83203,0.10944
0.83594,0.081028
0.83984,0.064682
0.84375,0.060984
0.84766,0.033295
0.85156,0.0092392
0.85547,0.019899
0.85938,0.012267
0.86328,0.0073283
0.86719,0.013162
0.87109,0.012169
0.875,-0.0035105
0.87891,-0.033228
0.88281,-0.033784
0.88672,-0.011596
0.89063,-0.077154
0.89453,-0.086866
0.89844,-0.032941
0.90234,0.010479
0.90625,0.0025736
0.91016,-0.0022781
0.91406,0.0071028
0.91797,-0.012701
0.92188,-0.028513
0.92578,-0.010693
0.92969,0.0059261
0.93359,-0.045946
0.9375,-0.089284
0.94141,-0.06776
0.94531,-0.041669
0.94922,0.021084
0.95313,0.13435
0.95703,0.29069
0.96094,0.60046
0.96484,1.0523
0.96875,1.4654
0.97266,1.5166
0.97656,1.2964
0.98047,0.77364
0.98438,0.25336
0.98828,-0.12258
0.99219,-0.35888
0.99609,-0.4367
1,-0.47995
1.0039,-0.4499
1.0078,-0.35168
1.0117,-0.26216
1.0156,-0.13316
1.0195,-0.094662
1.0234,-0.022167
1.0273,0.028497
1.0313,0.04745
1.0352,0.053371
1.0391,0.011569
1.043,0.04155
1.0469,0.10458
1.0508,0.14932
1.0547,0.14323
1.0586,0.12765
1.0625,0.1268
1.0664,0.14299
1.0703,0.13482
1.0742,0.11456
1.0781,0.16082
1.082,0.182
1.0859,0.18171
1.0898,0.21115
1.0938,0.21234
1.0977,0.23007
1.1016,0.25424
1.1055,0.2534
1.1094,0.2127
1.1133,0.22965
1.1172,0.2909
1.1211,0.31098
1.125,0.30455
1.1289,0.29467
1.1328,0.30436
1.1367,0.34631
1.1406,0.33425
1.1445,0.32489
1.1484,0.34836
1.1523,0.37668
1.1563,0.39976
1.1602,0.40937
1.1641,0.41618
1.168,0.42987
1.1719,0.46932
1.1758,0.48406
1.1797,0.4841
1.1836,0.52238
1.1875,0.54179
1.1914,0.53654
1.1953,0.53644
1.1992,0.55475
1.2031,0.61923
1.207,0.66534
1.2109,0.68017
1.2148,0.69098
1.2188,0.69466
1.2227,0.71012
1.2266,0.71269
1.2305,0.70489
1.2344,0.70172
1.2383,0.67268
1.2422,0.63608
1.2461,0.61472
1.25,0.58141
1.2539,0.56029
1.2578,0.50898
1.2617,0.42956
1.2656,0.3883
1.2695,0.36164
1.2734,0.31905
1.2773,0.25592
1.2813,0.19273
1.2852,0.20082
1.2891,0.19731
1.293,0.16829
1.2969,0.14931
1.3008,0.11903
1.3047,0.091712
1.3086,0.064919
1.3125,0.050763
1.3164,0.057971
1.3203,0.057405
1.3242,0.1028
1.3281,0.078679
1.332,0.042243
1.3359,0.052774
1.3398,0.058489
1.3438,0.027869
1.3477,0.018684
1.3516,0.019251
1.3555,0.029641
1.3594,0.026776
1.3633,0.018805
1.3672,0.020008
1.3711,0.0093983
1.375,-0.018579
1.3789,-0.031612
1.3828,-0.044054
1.3867,-0.0081603
1.3906,-0.012424
1.3945,0.023642
1.3984,0.05251
1.4023,0.027373
1.4063,0.004702
1.4102,-0.0072814
1.4141,0.0057751
1.418,0.0093973
1.4219,0.007119
1.4258,-0.012672
1.4297,-0.013625
1.4336,-0.0072808
1.4375,0.01076
1.4414,-0.029965
1.4453,-0.034905
1.4492,-0.071205
1.4531,-0.042366
1.457,-0.0030567
1.4609,0.011311
1.4648,0.0073002
1.4688,-0.0048478
1.4727,-0.03523
1.4766,-0.0067492
1.4805,0.0086179
1.4844,0.020463
1.4883,0.014362
1.4922,-0.015311
1.4961,-0.023191
1.5,-0.021467
1.5039,-0.0042977
1.5078,-0.020942
1.5117,-0.030074
1.5156,-0.017557
1.5195,-0.026018
1.5234,-0.056968
1.5273,-0.063386
1.5313,-0.063807
1.5352,-0.0371
1.5391,-0.051058
1.543,-0.057648
1.5469,-0.090841
1.5508,-0.086953
1.5547,-0.063149
1.5586,-0.061259
1.5625,-0.041112
1.5664,-0.028383
1.5703,-0.017303
1.5742,-0.02994
1.5781,-0.057281
1.582,-0.048406
1.5859,-0.069741
1.5898,-0.066472
1.5938,-0.07531
1.5977,-0.071733
1.6016,-0.064469
1.6055,-0.043564
1.6094,-0.045657
1.6133,-0.090004
1.6172,-0.085659
1.6211,-0.088446
1.625,-0.08228
1.6289,-0.10856
1.6328,-0.064296
1.6367,-0.091641
1.6406,-0.091931
1.6445,-0.12452
1.6484,-0.094937
1.6523,-0.06556
1.6563,-0.069134
1.6602,-0.061593
1.6641,-0.10749
1.668,-0.045404
1.6719,-0.029834
1.6758,-0.015842
1.6797,-0.040715
1.6836,-0.045315
1.6875,-0.052215
1.6914,-0.051535
1.6953,-0.080273
1.6992,-0.048422
1.7031,-0.035747
1.707,-0.059992
1.7109,-0.052496
1.7148,-0.043478
1.7188,-0.032362
1.7227,-0.063142
1.7266,-0.076101
1.7305,-0.049963
1.7344,-0.035286
1.7383,-0.058466
1.7422,-0.044281
1.7461,-0.031893
1.75,-0.013512
1.7539,0.0082643
1.7578,0.027739
1.7617,0.049023
1.7656,0.084953
1.7695,0.084468
1.7734,0.072521
1.7773,0.052214
1.7813,0.047418
1.7852,0.083161
1.7891,0.14256
1.793,0.1688
1.7969,0.15104
1.8008,0.14548
1.8047,0.1299
1.8086,0.074291
1.8125,0.047901
1.8164,0.04142
1.8203,0.067183
1.8242,0.078454
1.8281,0.029508
1.832,0.027662
1.8359,0.051207
1.8398,0.011144
1.8438,-0.045862
1.8477,-0.083536
1.8516,-0.032568
1.8555,-0.041818
1.8594,-0.042842
1.8633,-0.02778
1.8672,-0.018916
1.8711,-0.014376
1.875,-0.018775
1.8789,-0.046106
1.8828,-0.054321
1.8867,-0.068663
1.8906,-0.058986
1.8945,-0.045988
1.8984,-0.028732
1.9023,0.0008599
1.9063,-0.010511
1.9102,-0.033273
1.9141,-0.03721
1.918,-0.037177
1.9219,-0.054019
1.9258,-0.055856
1.9297,-0.065769
1.9336,-0.073949
1.9375,-0.011231
1.9414,0.075
1.9453,0.26271
1.9492,0.6062
1.9531,1.0499
1.957,1.4661
1.9609,1.5501
1.9648,1.5812
1.9688,1.3146
1.9727,0.71191
1.9766,0.21822
1.9805,-0.13634
1.9844,-0.33663
1.9883,-0.3753
1.9922,-0.38778
1.9961,-0.31862
2,-0.19689
2.0039,-0.10047
2.0078,0.0034569
2.0117,0.10147
2.0156,0.12187
2.0195,0.12894
2.0234,0.15007
2.0273,0.15749
2.0313,0.16102
2.0352,0.17984
2.0391,0.23782
2.043,0.17789
2.0469,0.16757
2.0508,0.18141
2.0547,0.17939
2.0586,0.1866
2.0625,0.14981
2.0664,0.18038
2.0703,0.13047
2.0742,0.1288
2.0781,0.1779
2.082,0.24172
2.0859,0.25794
2.0898,0.22569
2.0938,0.24817
2.0977,0.26266
2.1016,0.25975
2.1055,0.24978
2.1094,0.23584
2.1133,0.19485
2.1172,0.20767
2.1211,0.26022
2.125,0.27519
2.1289,0.30026
2.1328,0.31833
2.1367,0.36611
2.1406,0.34574
2.1445,0.32803
2.1484,0.39643
2.1523,0.46122
2.1563,0.47575
2.1602,0.47122
2.1641,0.47817
2.168,0.52557
2.1719,0.58811
2.1758,0.61776
2.1797,0.65513
2.1836,0.68643
2.1875,0.72011
2.1914,0.72465
2.1953,0.72782
2.1992,0.73466
2.2031,0.75989
2.207,0.78468
2.2109,0.83716
2.2148,0.84377
2.2188,0.90663
2.2227,0.91633
2.2266,0.88139
2.2305,0.87875
2.2344,0.90373
2.2383,0.85795
2.2422,0.7888
2.2461,0.76999
2.25,0.70638
2.2539,0.67559
2.2578,0.62229
2.2617,0.5314
2.2656,0.46533
2.2695,0.39448
2.2734,0.37109
2.2773,0.34524
2.2813,0.37067
2.2852,0.37293
2.2891,0.37758
2.293,0.38005
2.2969,0.33607
2.3008,0.30124
2.3047,0.31322
2.3086,0.33499
2.3125,0.34775
2.3164,0.36237
2.3203,0.31951
2.3242,0.32705
2.3281,0.31577
2.332,0.30166
2.3359,0.31351
2.3398,0.29867
2.3438,0.27546
2.3477,0.25282
2.3516,0.24726
2.3555,0.26073
2.3594,0.24038
2.3633,0.22715
2.3672,0.24277
2.3711,0.24468
2.375,0.22631
2.3789,0.22928
2.3828,0.25461
2.3867,0.2647
2.3906,0.24941
2.3945,0.24651
2.3984,0.27973
2.4023,0.31107
2.4063,0.31825
2.4102,0.29526
2.4141,0.28634
2.418,0.27199
2.4219,0.2096
2.4258,0.12673
2.4297,0.065405
2.4336,0.025134
2.4375,0.014785
2.4414,-0.04779
2.4453,-0.11831
2.4492,-0.062477
2.4531,0.062221
2.457,0.23588
2.4609,0.21934
2.4648,0.15325
2.4688,0.1372
2.4727,0.17386
2.4766,0.17943
2.4805,0.20489
2.4844,0.20482
2.4883,0.23697
2.4922,0.21631
2.4961,0.22717
2.5,0.23058
2.5039,0.21855
2.5078,0.22491
2.5117,0.23572
2.5156,0.21075
2.5195,0.2501
2.5234,0.27379
2.5273,0.24561
2.5313,0.22788
2.5352,0.19363
2.5391,0.15619
2.543,0.13597
2.5469,0.15065
2.5508,0.15544
2.5547,0.16144
2.5586,0.096898
2.5625,0.093862
2.5664,0.11137
2.5703,0.034818
2.5742,0.014654
2.5781,-0.002709
2.582,-0.0029916
2.5859,-0.012518
2.5898,-0.024365
2.5938,-0.033267
2.5977,-0.040594
2.6016,-0.014326
2.6055,0.0043572
2.6094,0.027932
2.6133,-0.0036074
2.6172,-0.018427
2.6211,-0.0093156
2.625,-0.013992
2.6289,-0.06383
2.6328,-0.061321
2.6367,-0.017355
2.6406,0.013687
2.6445,0.008367
2.6484,0.042123
2.6523,0.073558
2.6563,0.056224
2.6602,0.038733
2.6641,0.053538
2.668,0.069411
2.6719,0.055123
2.6758,0.052721
2.6797,0.074393
2.6836,0.16204
2.6875,0.216
2.6914,0.26878
2.6953,0.30713
2.6992,0.40619
2.7031,0.47573
2.707,0.48836
2.7109,0.47407
2.7148,0.54321
2.7188,0.47473
2.7227,0.42375
2.7266,0.4997
2.7305,0.48223
2.7344,0.45206
2.7383,0.46471
2.7422,0.46068
2.7461,0.45693
2.75,0.45424
2.7539,0.4198
2.7578,0.41903
2.7617,0.41752
2.7656,0.45061
2.7695,0.46371
2.7734,0.46107
2.7773,0.43389
2.7813,0.38448
2.7852,0.36679
2.7891,0.34137
2.793,0.28816
2.7969,0.21222
2.8008,0.18501
2.8047,0.1958
2.8086,0.17072
2.8125,0.098385
2.8164,0.12931
2.8203,0.14659
2.8242,0.14402
2.8281,0.19963
2.832,0.20993
2.8359,0.25376
2.8398,0.26042
2.8438,0.24081
2.8477,0.26424
2.8516,0.3165
2.8555,0.33672
2.8594,0.41317
2.8633,0.5551
2.8672,0.46312
2.8711,0.19283
2.875,-0.23896
2.8789,-0.62619
2.8828,-0.84179
2.8867,-0.99243
2.8906,-1.0295
2.8945,-0.8777
2.8984,-0.53631
2.9023,-0.24305
2.9063,-0.19718
2.9102,-0.089019
2.9141,-0.0010708
2.918,0.081377
2.9219,0.12399
2.9258,0.14748
2.9297,0.17499
2.9336,0.2112
2.9375,0.19763
2.9414,0.16551
2.9453,0.11801
2.9492,0.15184
2.9531,0.18076
2.957,0.24643
2.9609,0.38674
2.9648,0.71988
2.9688,1.1768
2.9727,1.5764
2.9766,1.6182
2.9805,1.5986
2.9844,1.3005
2.9883,0.79171
2.9922,0.28805
2.9961,-0.12353
3,-0.32618
3.0039,-0.40538
3.0078,-0.46159
3.0117,-0.45975
3.0156,-0.30078
3.0195,-0.16353
3.0234,-0.044035
3.0273,0.015582
3.0313,0.032417
3.0352,0.068422
3.0391,0.076502
3.043,0.052186
3.0469,0.040476
3.0508,0.048803
3.0547,0.076373
3.0586,0.12348
3.0625,0.10327
3.0664,0.10217
3.0703,0.068243
3.0742,0.13145
3.0781,0.19075
3.082,0.19912
3.0859,0.21692
3.0898,0.24329
3.0938,0.19746
3.0977,0.18004
3.1016,0.17587
3.1055,0.21395
3.1094,0.32335
3.1133,0.44176
3.1172,0.50217
3.1211,0.50062
3.125,0.46768
3.1289,0.40588
3.1328,0.46272
3.1367,0.54875
3.1406,0.56835
3.1445,0.52245
3.1484,0.49667
3.1523,0.49453
3.1563,0.49022
3.1602,0.53415
3.1641,0.58521
3.168,0.55368
3.1719,0.46301
3.1758,0.36944
3.1797,0.30919
3.1836,0.26111
3.1875,0.1999
3.1914,0.17258
3.1953,0.19524
3.1992,0.27421
3.2031,0.35483
3.207,0.43992
3.2109,0.48029
3.2148,0.5099
3.2188,0.58906
3.2227,0.624
3.2266,0.68114
3.2305,0.69681
3.2344,0.70483
3.2383,0.72143
3.2422,0.69071
3.2461,0.67203
3.25,0.66301
3.2539,0.57753
3.2578,0.47986
3.2617,0.38745
3.2656,0.26734
3.2695,0.26507
3.2734,0.099953
3.2773,-0.19542
3.2813,-0.32175
3.2852,-0.40438
3.2891,-0.42815
3.293,-0.5436
3.2969,-0.51142
3.3008,-0.4206
3.3047,-0.31241
3.3086,-0.22535
3.3125,-0.23039
3.3164,-0.1952
3.3203,-0.14478
3.3242,-0.15899
3.3281,-0.14204
3.332,-0.11753
3.3359,-0.096688
3.3398,-0.078809
3.3438,-0.071604
3.3477,-0.11056
3.3516,-0.13444
3.3555,-0.16828
3.3594,-0.19122
3.3633,-0.15979
3.3672,-0.12835
3.3711,-0.11358
3.375,-0.1009
3.3789,-0.14158
3.3828,-0.16438
3.3867,-0.15566
3.3906,-0.16902
3.3945,-0.19917
3.3984,-0.2268
3.4023,-0.23409
3.4063,-0.26157
3.4102,-0.31566
3.4141,-0.32446
3.418,-0.29625
3.4219,-0.28413
3.4258,-0.35697
3.4297,-0.34297
3.4336,-0.26218
3.4375,-0.31322
3.4414,-0.32799
3.4453,-0.33114
3.4492,-0.36768
3.4531,-0.34248
3.457,-0.34548
3.4609,-0.38143
3.4648,-0.36321
3.4688,-0.32797
3.4727,-0.33535
3.4766,-0.31518
3.4805,-0.32276
3.4844,-0.32984
3.4883,-0.32869
3.4922,-0.29681
3.4961,-0.31339
3.5,-0.28727
3.5039,-0.2765
3.5078,-0.22772
3.5117,-0.21666
3.5156,-0.17414
3.5195,-0.098443
3.5234,-0.10972
3.5273,-0.1468
3.5313,-0.1929
3.5352,-0.12626
3.5391,-0.043096
3.543,0.045411
3.5469,0.056683
3.5508,0.05498
3.5547,0.09252
3.5586,0.10317
3.5625,0.057205
3.5664,0.024956
3.5703,-0.055174
3.5742,-0.10024
3.5781,-0.1073
3.582,-0.050728
3.5859,-0.016365
3.5898,0.039501
3.5938,0.098909
3.5977,0.12357
3.6016,0.093779
3.6055,0.13439
3.6094,0.21901
3.6133,0.21457
3.6172,0.14047
3.6211,-0.0086227
3.625,-0.21454
3.6289,-0.25161
3.6328,-0.27085
3.6367,-0.26433
3.6406,-0.31377
3.6445,-0.39991
3.6484,-0.36466
3.6523,-0.28655
3.6563,-0.17496
3.6602,-0.0099967
3.6641,0.19573
3.668,0.33
3.6719,0.20933
3.6758,-0.0058039
3.6797,-0.23838
3.6836,-0.56823
3.6875,-0.90341
3.6914,-1.0899
3.6953,-1.1819
3.6992,-1.2112
3.7031,-1.1922
3.707,-1.0288
3.7109,-0.91872
3.7148,-0.75745
3.7188,-0.64248
3.7227,-0.58136
3.7266,-0.57583
3.7305,-0.53841
3.7344,-0.54872
3.7383,-0.50284
3.7422,-0.47193
3.7461,-0.42608
3.75,-0.33615
3.7539,-0.24
3.7578,-0.19966
3.7617,-0.16975
3.7656,-0.1539
3.7695,-0.21786
3.7734,-0.22591
3.7773,-0.22212
3.7813,-0.25329
3.7852,-0.27535
3.7891,-0.29386
3.793,-0.31986
3.7969,-0.23989
3.8008,-0.23108
3.8047,-0.28746
3.8086,-0.30609
3.8125,-0.31656
3.8164,-0.28633
3.8203,-0.31003
3.8242,-0.32838
3.8281,-0.34684
3.832,-0.33666
3.8359,-0.32458
3.8398,-0.31991
3.8438,-0.33476
3.8477,-0.33337
3.8516,-0.31818
3.8555,-0.29915
3.8594,-0.30512
3.8633,-0.29001
3.8672,-0.23327
3.8711,-0.23766
3.875,-0.23006
3.8789,-0.10358
3.8828,0.073764
3.8867,0.040897
3.8906,-0.018848
3.8945,0.052185
3.8984,0.077083
3.9023,0.17182
3.9063,0.31605
3.9102,0.46218
3.9141,0.48962
3.918,0.36571
3.9219,0.33521
3.9258,0.22584
3.9297,0.15074
3.9336,0.10373
3.9375,0.05191
3.9414,-0.00046271
3.9453,-0.10878
3.9492,-0.15432
3.9531,-0.16104
3.957,-0.1337
3.9609,-0.17542
3.9648,-0.15019
3.9688,-0.12299
3.9727,-0.16364
3.9766,-0.15911
3.9805,-0.11871
3.9844,0.013875
3.9883,0.24746
3.9922,0.40476
3.9961,0.7959
4,1.0524
4.0039,1.1053
4.0078,0.9358
4.0117,0.47015
4.0156,-0.0091819
4.0195,-0.41825
4.0234,-0.6873
4.0273,-0.77906
4.0313,-0.81498
4.0352,-0.73901
4.0391,-0.63216
4.043,-0.53033
4.0469,-0.41514
4.0508,-0.31292
4.0547,-0.24753
4.0586,-0.24803
4.0625,-0.23785
4.0664,-0.22808
4.0703,-0.21634
4.0742,-0.26934
4.0781,-0.24697
4.082,-0.17711
4.0859,-0.12203
4.0898,-0.14907
4.0938,-0.15821
4.0977,-0.14309
4.1016,-0.15356
4.1055,-0.12882
4.1094,-0.14395
4.1133,-0.13021
4.1172,-0.12157
4.1211,-0.10145
4.125,-0.12754
4.1289,-0.15549
4.1328,-0.11678
4.1367,-0.09154
4.1406,-0.067513
4.1445,-0.062004
4.1484,-0.073789
4.1523,-0.049353
4.1563,-0.046033
4.1602,-0.034548
4.1641,-0.008263
4.168,0.0014493
4.1719,0.044569
4.1758,0.056907
4.1797,0.058442
4.1836,0.077228
4.1875,0.041361
4.1914,0.055415
4.1953,0.087154
4.1992,0.12114
4.2031,0.13156
4.207,0.10788
4.2109,0.12496
4.2148,0.18503
4.2188,0.18764
4.2227,0.21349
4.2266,0.24432
4.2305,0.27625
4.2344,0.32586
4.2383,0.30798
4.2422,0.33641
4.2461,0.3562
4.25,0.3491
4.2539,0.40469
4.2578,0.3909
4.2617,0.38679
4.2656,0.3876
4.2695,0.37752
4.2734,0.35404
4.2773,0.34096
4.2813,0.32587
4.2852,0.25252
4.2891,0.24588
4.293,0.21452
4.2969,0.17769
4.3008,0.13092
4.3047,0.074345
4.3086,0.033431
4.3125,-0.019302
4.3164,-0.05551
4.3203,-0.075555
4.3242,-0.10612
4.3281,-0.15709
4.332,-0.18951
4.3359,-0.17627
4.3398,-0.2006
4.3438,-0.21396
4.3477,-0.21779
4.3516,-0.22335
4.3555,-0.21664
4.3594,-0.2309
4.3633,-0.25454
4.3672,-0.22509
4.3711,-0.21698
4.375,-0.22105
4.3789,-0.21603
4.3828,-0.2229
4.3867,-0.23488
4.3906,-0.22068
4.3945,-0.22018
4.3984,-0.19681
4.4023,-0.19572
4.4063,-0.21129
4.4102,-0.19684
4.4141,-0.17619
4.418,-0.15676
4.4219,-0.15507
4.4258,-0.15381
4.4297,-0.14396
4.4336,-0.1173
4.4375,-0.11126
4.4414,-0.10984
4.4453,-0.14635
4.4492,-0.11578
4.4531,-0.12913
4.457,-0.090188
4.4609,-0.10887
4.4648,-0.078794
4.4688,-0.017775
4.4727,0.036682
4.4766,-0.040624
4.4805,-0.026405
4.4844,-0.030288
4.4883,-0.012603
4.4922,-0.01403
4.4961,-0.024831
4.5,0.00028627
4.5039,0.032112
4.5078,0.00314
4.5117,0.04456
4.5156,0.060521
4.5195,0.046553
4.5234,0.040374
4.5273,0.022006
4.5313,0.015972
4.5352,0.038786
4.5391,0.0035417
4.543,-0.030477
4.5469,0.011448
4.5508,0.067869
4.5547,0.074741
4.5586,0.030983
4.5625,-0.016815
4.5664,0.0020976
4.5703,-0.012528
4.5742,-0.0068163
4.5781,-0.050654
4.582,-0.045163
4.5859,-0.030876
4.5898,-0.022721
4.5938,-0.042119
4.5977,-0.065198
4.6016,-0.081861
4.6055,-0.10451
4.6094,-0.10409
4.6133,-0.12509
4.6172,-0.11414
4.6211,-0.09844
4.625,-0.098175
4.6289,-0.11638
4.6328,-0.095998
4.6367,-0.081753
4.6406,-0.059436
4.6445,-0.044985
4.6484,-0.014166
4.6523,0.045063
4.6563,0.020987
4.6602,-0.010668
4.6641,0.026404
4.668,0.065923
4.6719,0.011173
4.6758,0.0097869
4.6797,-0.0055968
4.6836,-0.0061297
4.6875,-0.0055872
4.6914,-0.0090901
4.6953,-0.00055538
4.6992,-0.028521
4.7031,-0.013726
4.707,-0.03947
4.7109,-0.021372
4.7148,-0.028451
4.7188,-0.020321
4.7227,-0.018329
4.7266,-0.045698
4.7305,-0.057714
4.7344,-0.011536
4.7383,0.023599
4.7422,0.010476
4.7461,0.020351
4.75,0.046588
4.7539,0.007907
4.7578,0.0094604
4.7617,0.021606
4.7656,0.057326
4.7695,0.064476
4.7734,0.072337
4.7773,0.04456
4.7813,0.073388
4.7852,0.088287
4.7891,0.10534
4.793,0.09389
4.7969,0.077888
4.8008,0.073919
4.8047,0.084724
4.8086,0.1305
4.8125,0.15073
4.8164,0.12825
4.8203,0.10634
4.8242,0.09256
4.8281,0.071344
4.832,0.12563
4.8359,0.17759
4.8398,0.16751
4.8438,0.13218
4.8477,0.12122
4.8516,0.10389
4.8555,0.10004
4.8594,0.14435
4.8633,0.1316
4.8672,0.084215
4.8711,0.10706
4.875,0.12528
4.8789,0.14774
4.8828,0.11754
4.8867,0.072033
4.8906,0.024707
4.8945,-0.0048911
4.8984,-0.0082525
4.9023,-0.0060759
4.9063,-0.029157
4.9102,-0.052326
4.9141,-0.058418
4.918,-0.053059
4.9219,-0.022257
4.9258,-0.050611
4.9297,0.00042473
4.9336,-0.0078403
4.9375,-0.015689
4.9414,-0.015261
4.9453,0.00036747
4.9492,-0.00075305
4.9531,-0.011987
4.957,0.00041735
4.9609,-0.021524
4.9648,-0.036775
4.9688,-0.030838
4.9727,-0.01785
4.9766,-0.040145
4.9805,-0.062312
4.9844,-0.023551
4.9883,0.01577
4.9922,0.16247
4.9961,0.42418
5,0.80199
5.0039,1.1856
5.0078,1.2525
5.0117,1.2417
5.0156,1.0552
5.0195,0.65896
5.0234,0.27948
5.0273,-0.087102
5.0313,-0.34552
5.0352,-0.42811
5.0391,-0.495
5.043,-0.42639
5.0469,-0.26092
5.0508,-0.12779
5.0547,0.0031719
5.0586,0.068993
5.0625,0.082945
5.0664,0.097606
5.0703,0.079727
5.0742,0.094074
5.0781,0.084248
5.082,0.082991
5.0859,0.093262
5.0898,0.077269
5.0938,0.088237
5.0977,0.10879
5.1016,0.11043
5.1055,0.12086
5.1094,0.12045
5.1133,0.12668
5.1172,0.1375
5.1211,0.14104
5.125,0.14398
5.1289,0.13105
5.1328,0.13159
5.1367,0.14294
5.1406,0.12601
5.1445,0.15169
5.1484,0.16777
5.1523,0.17367
5.1563,0.18108
5.1602,0.14686
5.1641,0.15684
5.168,0.19083
5.1719,0.17267
5.1758,0.21227
5.1797,0.22488
5.1836,0.23655
5.1875,0.2661
5.1914,0.27003
5.1953,0.2498
5.1992,0.28523
5.2031,0.33234
5.207,0.37252
5.2109,0.39502
5.2148,0.39465
5.2188,0.42601
5.2227,0.4236
5.2266,0.43266
5.2305,0.44589
5.2344,0.47506
5.2383,0.50933
5.2422,0.52226
5.2461,0.50762
5.25,0.5201
5.2539,0.58407
5.2578,0.5754
5.2617,0.56225
5.2656,0.58394
5.2695,0.62127
5.2734,0.6032
5.2773,0.60871
5.2813,0.54188
5.2852,0.53692
5.2891,0.52295
5.293,0.47673
5.2969,0.44608
5.3008,0.41031
5.3047,0.36667
5.3086,0.2636
5.3125,0.19045
5.3164,0.15848
5.3203,0.091822
5.3242,0.090787
5.3281,0.081742
5.332,0.048533
5.3359,0.0415
5.3398,0.027108
5.3438,0.0049958
5.3477,-0.0034167
5.3516,-0.02027
5.3555,-0.012894
5.3594,0.0063797
5.3633,0.03921
5.3672,0.063094
5.3711,0.057767
5.375,0.015584
5.3789,0.020206
5.3828,-0.0084229
5.3867,0.0031188
5.3906,-0.036259
5.3945,-0.052127
5.3984,-0.054509
5.4023,-0.037636
5.4063,-0.04579
5.4102,-0.063033
5.4141,-0.031594
5.418,0.0041714
5.4219,-0.01026
5.4258,-9.9029e-05
5.4297,0.0072493
5.4336,0.010919
5.4375,0.032908
5.4414,0.029583
5.4453,0.025103
5.4492,0.031659
5.4531,0.012901
5.457,-0.0039095
5.4609,-0.013218
5.4648,-0.015098
5.4688,-0.013731
5.4727,-0.011929
5.4766,-0.024623
5.4805,-0.048206
5.4844,-0.028586
5.4883,-0.077985
5.4922,-0.046317
5.4961,-0.00043941
5.5,0.047027
5.5039,0.056344
5.5078,0.033497
5.5117,0.0024305
5.5156,-0.013704
5.5195,-0.027455
5.5234,-0.024977
5.5273,-0.020475
5.5313,-0.018567
5.5352,-0.047018
5.5391,-0.086501
5.543,-0.059123
5.5469,-0.02525
5.5508,-0.0081059
5.5547,-0.0092042
5.5586,-0.028689
5.5625,-0.054228
5.5664,-0.060506
5.5703,-0.028699
5.5742,-0.045497
5.5781,-0.034091
5.582,-0.035517
5.5859,-0.04617
5.5898,-0.048884
5.5938,-0.064791
5.5977,-0.064104
5.6016,-0.050213
5.6055,-0.056799
5.6094,-0.075928
5.6133,-0.070674
5.6172,-0.057985
5.6211,-0.064114
5.625,-0.071606
5.6289,-0.064018
5.6328,-0.072218
5.6367,-0.077958
5.6406,-0.098477
5.6445,-0.11762
5.6484,-0.089368
5.6523,-0.082242
5.6563,-0.081238
5.6602,-0.080299
5.6641,-0.049927
5.668,-0.048827
5.6719,-0.066977
5.6758,-0.064202
5.6797,-0.062068
5.6836,-0.063964
5.6875,-0.07768
5.6914,-0.086699
5.6953,-0.10011
5.6992,-0.099589
5.7031,-0.1238
5.707,-0.12138
5.7109,-0.11362
5.7148,-0.12187
5.7188,-0.089926
5.7227,-0.071752
5.7266,-0.0778
5.7305,-0.098118
5.7344,-0.093471
5.7383,-0.071938
5.7422,-0.079531
5.7461,-0.097931
5.75,-0.086679
5.7539,-0.093734
5.7578,-0.11347
5.7617,-0.1063
5.7656,-0.096803
5.7695,-0.096745
5.7734,-0.093286
5.7773,-0.10258
5.7813,-0.11778
5.7852,-0.15467
5.7891,-0.18405
5.793,-0.14743
5.7969,-0.071483
5.8008,-0.059715
5.8047,-0.063586
5.8086,-0.066795
5.8125,-0.073596
5.8164,-0.05406
5.8203,-0.037828
5.8242,-0.0091779
5.8281,0.011769
5.832,-0.0088125
5.8359,-0.012071
5.8398,-0.011781
5.8438,-0.017319
5.8477,-0.0035145
5.8516,0.03699
5.8555,0.081908
5.8594,0.10232
5.8633,0.083007
5.8672,0.073951
5.8711,0.039379
5.875,-0.017825
5.8789,-0.018325
5.8828,0.013212
5.8867,0.0072622
5.8906,0.0075301
5.8945,-0.019953
5.8984,-0.050737
5.9023,-0.065134
5.9063,-0.056219
5.9102,-0.051254
5.9141,-0.048941
5.918,-0.023677
5.9219,-0.053497
5.9258,-0.086689
5.9297,-0.072841
5.9336,-0.080756
5.9375,-0.073797
5.9414,-0.04064
5.9453,-0.040714
5.9492,-0.030456
5.9531,0.00022975
5.957,0.0056913
5.9609,0.016725
5.9648,-0.00085617
5.9688,0.00054959
5.9727,-0.0076184
5.9766,0.007455
5.9805,-0.0033452
5.9844,-0.019464
5.9883,-0.0094578
5.9922,0.0017205
5.9961,-0.0087203
6,-0.066528
6.0039,-0.026016
6.0078,0.014513
6.0117,0.10396
6.0156,0.25602
6.0195,0.50265
6.0234,0.64328
6.0273,1.0153
6.0313,1.1115
6.0352,1.0488
6.0391,0.74228
6.043,0.26866
6.0469,-0.079383
6.0508,-0.41479
6.0547,-0.60608
6.0586,-0.64836
6.0625,-0.6128
6.0664,-0.49868
6.0703,-0.43151
6.0742,-0.25195
6.0781,-0.13245
6.082,-0.048569
6.0859,-0.043357
6.0898,-0.081766
6.0938,-0.08107
6.0977,-0.050502
6.1016,0.028905
6.1055,0.047528
6.1094,2.7645e-05
6.1133,0.063103
6.1172,0.092728
6.1211,0.10895
6.125,0.15814
6.1289,0.18355
6.1328,0.20046
6.1367,0.2401
6.1406,0.29136
6.1445,0.27182
6.1484,0.28812
6.1523,0.2792
6.1563,0.22218
6.1602,0.23268
6.1641,0.3032
6.168,0.33731
6.1719,0.38087
6.1758,0.34389
6.1797,0.27417
6.1836,0.28496
6.1875,0.32193
6.1914,0.28405
6.1953,0.21228
6.1992,0.23508
6.2031,0.25471
6.207,0.26476
6.2109,0.21755
6.2148,0.19747
6.2188,0.11458
6.2227,0.098846
6.2266,0.050666
6.2305,0.073246
6.2344,0.079535
6.2383,0.24457
6.2422,0.20696
6.2461,0.1723
6.25,0.14754
6.2539,0.16613
6.2578,0.16554
6.2617,0.11499
6.2656,0.15199
6.2695,0.13707
6.2734,0.18383
6.2773,0.1638
6.2813,0.10571
6.2852,0.15017
6.2891,0.16392
6.293,0.17465
6.2969,0.11831
6.3008,0.067386
6.3047,0.097748
6.3086,0.098979
6.3125,0.10454
6.3164,0.052414
6.3203,0.043059
6.3242,-0.073823
6.3281,-0.14974
6.332,-0.16773
6.3359,-0.26354
6.3398,-0.31932
6.3438,-0.42449
6.3477,-0.49302
6.3516,-0.46888
6.3555,-0.55803
6.3594,-0.6091
6.3633,-0.606
6.3672,-0.65042
6.3711,-0.674
6.375,-0.70068
6.3789,-0.73565
6.3828,-0.74573
6.3867,-0.72775
6.3906,-0.68627
6.3945,-0.68776
6.3984,-0.67526
6.4023,-0.58854
6.4063,-0.54754
6.4102,-0.52097
6.4141,-0.51769
6.418,-0.48917
6.4219,-0.42235
6.4258,-0.40284
6.4297,-0.4204
6.4336,-0.4495
6.4375,-0.44787
6.4414,-0.49096
6.4453,-0.44065
6.4492,-0.42863
6.4531,-0.41373
6.457,-0.39891
6.4609,-0.40983
6.4648,-0.38187
6.4688,-0.36892
6.4727,-0.35453
6.4766,-0.40187
6.4805,-0.36908
6.4844,-0.37301
6.4883,-0.33374
6.4922,-0.28704
6.4961,-0.25072
6.5,-0.26843
6.5039,-0.3015
6.5078,-0.27846
6.5117,-0.25809
6.5156,-0.24508
6.5195,-0.22393
6.5234,-0.21409
6.5273,-0.2166
6.5313,-0.21766
6.5352,-0.20019
6.5391,-0.1815
6.543,-0.11997
6.5469,-0.15401
6.5508,-0.12862
6.5547,-0.17037
6.5586,-0.16345
6.5625,-0.17356
6.5664,-0.15561
6.5703,-0.064611
6.5742,-0.071843
6.5781,-0.077349
6.582,-0.099879
6.5859,-0.11196
6.5898,-0.043913
6.5938,-0.042225
6.5977,-0.057996
6.6016,-0.084663
6.6055,-0.082991
6.6094,-0.071949
6.6133,-0.061778
6.6172,-0.032501
6.6211,-0.043112
6.625,-0.035989
6.6289,0.037986
6.6328,0.0069447
6.6367,0.019747
6.6406,0.054179
6.6445,0.038335
6.6484,0.08285
6.6523,0.043409
6.6563,0.078822
6.6602,0.038212
6.6641,0.024784
6.668,0.050582
6.6719,0.05827
6.6758,0.056358
6.6797,0.054221
6.6836,0.0264
6.6875,0.046677
6.6914,0.026412
6.6953,0.038449
6.6992,0.027614
6.7031,-0.029243
6.707,0.072341
6.7109,0.073163
6.7148,0.039501
6.7188,0.04463
6.7227,0.045279
6.7266,0.011731
6.7305,0.075971
6.7344,0.0071354
6.7383,0.027937
6.7422,0.028462
6.7461,0.048737
6.75,0.050683
6.7539,0.062571
6.7578,0.023529
6.7617,0.039001
6.7656,0.067803
6.7695,0.05635
6.7734,0.015748
6.7773,-0.0061142
6.7813,0.0051876
6.7852,0.013087
6.7891,-0.00080566
6.793,0.0072858
6.7969,0.014211
6.8008,0.052135
6.8047,0.080599
6.8086,0.058132
6.8125,0.078275
6.8164,0.11492
6.8203,0.11369
6.8242,0.103
6.8281,0.085655
6.832,0.084815
6.8359,0.10574
6.8398,0.12175
6.8438,0.14128
6.8477,0.12689
6.8516,0.14892
6.8555,0.090582
6.8594,0.11798
6.8633,0.15446
6.8672,0.15623
6.8711,0.19758
6.875,0.20653
6.8789,0.16916
6.8828,0.15622
6.8867,0.16563
6.8906,0.17091
6.8945,0.17574
6.8984,0.17753
6.9023,0.17786
6.9063,0.17131
6.9102,0.11398
6.9141,0.10409
6.918,0.097281
6.9219,0.074156
6.9258,0.089742
6.9297,0.13697
6.9336,0.12324
6.9375,0.11332
6.9414,0.089164
6.9453,0.056772
6.9492,0.02905
6.9531,0.037803
6.957,0.037738
6.9609,0.080711
6.9648,0.069935
6.9688,0.030723
6.9727,-0.023869
6.9766,-0.021505
6.9805,-0.0036538
6.9844,0.00040229
6.9883,-0.0015473
6.9922,0.014081
6.9961,-0.02678
7,-0.046674
7.0039,-0.0061483
7.0078,-0.0038661
7.0117,-0.0087426
7.0156,-0.013493
7.0195,0.010586
7.0234,0.006159
7.0273,0.089342
7.0313,0.24441
7.0352,0.5934
7.0391,0.83332
7.043,1.1746
7.0469,1.2781
7.0508,1.2399
7.0547,0.93495
7.0586,0.44981
7.0625,0.078619
7.0664,-0.22134
7.0703,-0.32038
7.0742,-0.39232
7.0781,-0.38257
7.082,-0.30366
7.0859,-0.22665
7.0898,-0.12527
7.0938,-0.040572
7.0977,-0.0058688
7.1016,0.020886
7.1055,0.1165
7.1094,0.13861
7.1133,0.15803
7.1172,0.13331
7.1211,0.1395
7.125,0.12946
7.1289,0.12784
7.1328,0.093889
7.1367,0.1578
7.1406,0.13955
7.1445,0.12496
7.1484,0.11267
7.1523,0.14666
7.1563,0.12251
7.1602,0.16737
7.1641,0.2446
7.168,0.24472
7.1719,0.23725
7.1758,0.2659
7.1797,0.24542
7.1836,0.24253
7.1875,0.25146
7.1914,0.23794
7.1953,0.23465
7.1992,0.29619
7.2031,0.34257
7.207,0.34768
7.2109,0.36714
7.2148,0.36228
7.2188,0.37399
7.2227,0.39536
7.2266,0.3459
7.2305,0.3645
7.2344,0.39529
7.2383,0.44402
7.2422,0.51517
7.2461,0.52148
7.25,0.52222
7.2539,0.56471
7.2578,0.59954
7.2617,0.6154
7.2656,0.63759
7.2695,0.67045
7.2734,0.64907
7.2773,0.68349
7.2813,0.76046
7.2852,0.73746
7.2891,0.74641
7.293,0.81607
7.2969,0.81511
7.3008,0.81754
7.3047,0.81353
7.3086,0.83506
7.3125,0.83537
7.3164,0.83531
7.3203,0.7867
7.3242,0.64607
7.3281,0.64036
7.332,0.66847
7.3359,0.67905
7.3398,0.58663
7.3438,0.46277
7.3477,0.44577
7.3516,0.47594
7.3555,0.47308
7.3594,0.41063
7.3633,0.36599
7.3672,0.31017
7.3711,0.24453
7.375,0.2187
7.3789,0.21933
7.3828,0.15901
7.3867,0.22635
7.3906,0.28264
7.3945,0.29133
7.3984,0.25494
7.4023,0.2572
7.4063,0.24092
7.4102,0.18987
7.4141,0.20762
7.418,0.21109
7.4219,0.19941
7.4258,0.22581
7.4297,0.22249
7.4336,0.24888
7.4375,0.26438
7.4414,0.23111
7.4453,0.22316
7.4492,0.2137
7.4531,0.19975
7.457,0.23774
7.4609,0.19126
7.4648,0.1807
7.4688,0.21717
7.4727,0.22442
7.4766,0.21565
7.4805,0.21526
7.4844,0.22495
7.4883,0.18763
7.4922,0.16984
7.4961,0.21329
7.5,0.24166
7.5039,0.24637
7.5078,0.23212
7.5117,0.25595
7.5156,0.28215
7.5195,0.29523
7.5234,0.28371
7.5273,0.25619
7.5313,0.23494
7.5352,0.24542
7.5391,0.23881
7.543,0.20111
7.5469,0.18203
7.5508,0.19626
7.5547,0.21302
7.5586,0.17115
7.5625,0.1701
7.5664,0.18924
7.5703,0.19526
7.5742,0.15887
7.5781,0.17102
7.582,0.14358
7.5859,0.12747
7.5898,0.1423
7.5938,0.16181
7.5977,0.16842
7.6016,0.13688
7.6055,0.15352
7.6094,0.1481
7.6133,0.15782
7.6172,0.14822
7.6211,0.18795
7.625,0.17273
7.6289,0.14337
7.6328,0.16126
7.6367,0.14129
7.6406,0.13698
7.6445,0.09379
7.6484,0.013322
7.6523,-0.014637
7.6563,-0.038192
7.6602,0.056537
7.6641,0.078284
7.668,0.063614
7.6719,0.032506
7.6758,0.042296
7.6797,0.18862
7.6836,0.20412
7.6875,0.26801
7.6914,0.26787
7.6953,0.22403
7.6992,0.14984
7.7031,0.10774
7.707,0.14455
7.7109,0.16247
7.7148,0.14145
7.7188,0.11294
7.7227,0.10348
7.7266,0.080968
7.7305,0.10167
7.7344,0.11739
7.7383,0.14806
7.7422,0.118
7.7461,0.16513
7.75,0.1894
7.7539,0.19932
7.7578,0.1737
7.7617,0.16886
7.7656,0.17967
7.7695,0.18768
7.7734,0.19094
7.7773,0.1971
7.7813,0.21927
7.7852,0.22061
7.7891,0.24584
7.793,0.17197
7.7969,0.2032
7.8008,0.21532
7.8047,0.24535
7.8086,0.21948
7.8125,0.16103
7.8164,0.15516
7.8203,0.20758
7.8242,0.18717
7.8281,0.17795
7.832,0.12626
7.8359,0.091021
7.8398,0.12864
7.8438,0.13461
7.8477,0.1227
7.8516,0.13482
7.8555,0.14522
7.8594,0.11864
7.8633,0.13418
7.8672,0.13084
7.8711,0.096507
7.875,0.09168
7.8789,0.082394
7.8828,0.127
7.8867,0.061985
7.8906,-0.0002722
7.8945,0.074371
7.8984,0.14008
7.9023,0.19081
7.9063,0.15067
7.9102,0.13161
7.9141,0.14804
7.918,0.15539
7.9219,0.15584
7.9258,0.090737
7.9297,0.11017
7.9336,0.16734
7.9375,0.31121
7.9414,0.59948
7.9453,1.0542
7.9492,1.4901
7.9531,1.6095
7.957,1.5161
7.9609,1.1451
7.9648,0.66556
7.9688,0.21754
7.9727,-0.17608
7.9766,-0.25517
7.9805,-0.26004
7.9844,-0.28906
7.9883,-0.24544
7.9922,-0.1628
7.9961,-0.036797
8,0.15564
8.0039,0.23579
8.0078,0.19414
8.0117,0.23226
8.0156,0.28784
8.0195,0.32036
8.0234,0.31971
8.0273,0.30154
8.0313,0.30112
8.0352,0.28759
8.0391,0.26043
8.043,0.24569
8.0469,0.2513
8.0508,0.3384
8.0547,0.38521
8.0586,0.35845
8.0625,0.31707
8.0664,0.34031
8.0703,0.33456
8.0742,0.39078
8.0781,0.39457
8.082,0.43025
8.0859,0.4166
8.0898,0.44623
8.0938,0.44284
8.0977,0.43866
8.1016,0.4461
8.1055,0.4317
8.1094,0.42278
8.1133,0.41776
8.1172,0.46158
8.1211,0.44734
8.125,0.44855
8.1289,0.42841
8.1328,0.48682
8.1367,0.54999
8.1406,0.51544
8.1445,0.57452
8.1484,0.62285
8.1523,0.64306
8.1563,0.68434
8.1602,0.67557
8.1641,0.70272
8.168,0.70088
8.1719,0.67618
8.1758,0.75809
8.1797,0.80855
8.1836,0.83486
8.1875,0.85461
8.1914,0.85402
8.1953,0.8406
8.1992,0.8543
8.2031,0.87363
8.207,0.88431
8.2109,0.8218
8.2148,0.82037
8.2188,0.80372
8.2227,0.741
8.2266,0.76972
8.2305,0.84858
8.2344,0.86029
8.2383,0.78056
8.2422,0.71813
8.2461,0.61893
8.25,0.58724
8.2539,0.53405
8.2578,0.4826
8.2617,0.46173
8.2656,0.50829
8.2695,0.48361
8.2734,0.47176
8.2773,0.41671
8.2813,0.35993
8.2852,0.35147
8.2891,0.35059
8.293,0.31423
8.2969,0.28046
8.3008,0.2596
8.3047,0.27106
8.3086,0.2828
8.3125,0.28964
8.3164,0.27239
8.3203,0.218
8.3242,0.27814
8.3281,0.29717
8.332,0.29983
8.3359,0.32982
8.3398,0.26966
8.3438,0.2077
8.3477,0.25716
8.3516,0.26104
8.3555,0.2029
8.3594,0.26383
8.3633,0.34473
8.3672,0.37681
8.3711,0.36915
8.375,0.33018
8.3789,0.29857
8.3828,0.29112
8.3867,0.30653
8.3906,0.32309
8.3945,0.29811
8.3984,0.31806
8.4023,0.29127
8.4063,0.29621
8.4102,0.30021
8.4141,0.29383
8.418,0.29032
8.4219,0.27254
8.4258,0.28208
8.4297,0.22578
8.4336,0.24015
8.4375,0.24716
8.4414,0.25229
8.4453,0.32896
8.4492,0.36892
8.4531,0.33863
8.457,0.33863
8.4609,0.36596
8.4648,0.31229
8.4688,0.28956
8.4727,0.27151
8.4766,0.2686
8.4805,0.2703
8.4844,0.29017
8.4883,0.28249
8.4922,0.27625
8.4961,0.31291
8.5,0.33594
8.5039,0.3242
8.5078,0.31995
8.5117,0.32529
8.5156,0.32139
8.5195,0.28432
8.5234,0.34525
8.5273,0.36542
8.5313,0.37578
8.5352,0.39227
8.5391,0.33792
8.543,0.30939
8.5469,0.3123
8.5508,0.32306
8.5547,0.30381
8.5586,0.31138
8.5625,0.31232
8.5664,0.31252
8.5703,0.2874
8.5742,0.18951
8.5781,0.17454
8.582,0.17941
8.5859,0.18866
8.5898,0.19654
8.5938,0.18818
8.5977,0.19258
8.6016,0.19812
8.6055,0.21217
8.6094,0.19563
8.6133,0.15874
8.6172,0.13706
8.6211,0.056737
8.625,0.082785
8.6289,0.083221
8.6328,0.09562
8.6367,0.13758
8.6406,0.13128
8.6445,0.15497
8.6484,0.16553
8.6523,0.10035
8.6563,0.14256
8.6602,0.12171
8.6641,0.09718
8.668,0.11757
8.6719,0.060852
8.6758,0.042493
8.6797,0.075906
8.6836,0.070146
8.6875,-0.036162
8.6914,0.064437
8.6953,0.14238
8.6992,0.10347
8.7031,0.12629
8.707,0.12746
8.7109,0.11412
8.7148,0.014156
8.7188,0.061378
8.7227,0.061132
8.7266,-0.02697
8.7305,0.010264
8.7344,0.076262
8.7383,0.057433
8.7422,-0.00021034
8.7461,0.03106
8.75,0.034985
8.7539,0.0083181
8.7578,0.02246
8.7617,-0.009856
8.7656,0.038232
8.7695,0.10412
8.7734,0.019555
8.7773,-0.062138
8.7813,-0.052826
8.7852,0.032781
8.7891,0.18119
8.793,0.43374
8.7969,0.77167
8.8008,1.2462
8.8047,1.5526
8.8086,1.4817
8.8125,1.1948
8.8164,0.77198
8.8203,0.27511
8.8242,-0.1159
8.8281,-0.30058
8.832,-0.32508
8.8359,-0.39085
8.8398,-0.38782
8.8438,-0.27785
8.8477,-0.13399
8.8516,-0.074017
8.8555,0.017032
8.8594,0.048499
8.8633,0.077216
8.8672,0.10809
8.8711,0.11054
8.875,0.081529
8.8789,0.089079
8.8828,0.13045
8.8867,0.14973
8.8906,0.12091
8.8945,0.12021
8.8984,0.12238
8.9023,0.095908
8.9063,0.10722
8.9102,0.1481
8.9141,0.18746
8.918,0.17552
8.9219,0.15392
8.9258,0.16671
8.9297,0.14192
8.9336,0.13386
8.9375,0.22394
8.9414,0.28171
8.9453,0.26244
8.9492,0.22233
8.9531,0.27683
8.957,0.3112
8.9609,0.32696
8.9648,0.35403
8.9688,0.36192
8.9727,0.35552
8.9766,0.35437
8.9805,0.33779
8.9844,0.37508
8.9883,0.43537
8.9922,0.54346
8.9961,0.5578
9,0.55222
9.0039,0.57708
9.0078,0.55873
9.0117,0.56417
9.0156,0.62254
9.0195,0.68733
9.0234,0.70344
9.0273,0.71513
9.0313,0.75856
9.0352,0.77566
9.0391,0.8061
9.043,0.79239
9.0469,0.80385
9.0508,0.80413
9.0547,0.85395
9.0586,0.85653
9.0625,0.86566
9.0664,0.86405
9.0703,0.8752
9.0742,0.86449
9.0781,0.86027
9.082,0.83427
9.0859,0.71941
9.0898,0.63541
9.0938,0.60471
9.0977,0.59564
9.1016,0.5627
9.1055,0.50632
9.1094,0.44099
9.1133,0.38481
9.1172,0.34977
9.1211,0.33954
9.125,0.30636
9.1289,0.33096
9.1328,0.26316
9.1367,0.23915
9.1406,0.24008
9.1445,0.19658
9.1484,0.19975
9.1523,0.12005
9.1563,0.067247
9.1602,0.021151
9.1641,-0.049179
9.168,0.023941
9.1719,0.067778
9.1758,0.11226
9.1797,0.15199
9.1836,0.13034
9.1875,0.039087
9.1914,0.025441
9.1953,0.0034282
9.1992,0.029304
9.2031,-0.033674
9.207,-0.10725
9.2109,-0.099335
9.2148,-0.089181
9.2188,-0.052053
9.2227,-0.078247
9.2266,-0.077179
9.2305,-0.05642
9.2344,-0.098335
9.2383,-0.040432
9.2422,-0.031282
9.2461,-0.046075
9.25,-0.025311
9.2539,-0.031015
9.2578,-0.06708
9.2617,-0.10798
9.2656,-0.12925
9.2695,-0.10625
9.2734,-0.13762
9.2773,-0.04854
9.2813,-0.026753
9.2852,0.0093891
9.2891,0.044812
9.293,-0.049509
9.2969,-0.094352
9.3008,-0.11734
9.3047,-0.10657
9.3086,-0.092123
9.3125,-0.085028
9.3164,-0.065164
9.3203,-0.099172
9.3242,-0.13527
9.3281,-0.18413
9.332,-0.13288
9.3359,-0.08804
9.3398,-0.052
9.3438,-0.11635
9.3477,-0.080951
9.3516,-0.075984
9.3555,-0.075989
9.3594,-0.085583
9.3633,-0.12243
9.3672,-0.1833
9.3711,-0.18725
9.375,-0.15492
9.3789,-0.11978
9.3828,-0.12098
9.3867,-0.12304
9.3906,-0.12632
9.3945,-0.18405
9.3984,-0.17578
9.4023,-0.15301
9.4063,-0.20639
9.4102,-0.17402
9.4141,-0.098654
9.418,-0.10384
9.4219,-0.17956
9.4258,-0.20501
9.4297,-0.17253
9.4336,-0.10543
9.4375,-0.1015
9.4414,-0.095262
9.4453,-0.11325
9.4492,-0.15517
9.4531,-0.19874
9.457,-0.1223
9.4609,-0.075059
9.4648,-0.050385
9.4688,-0.061188
9.4727,-0.1017
9.4766,-0.09121
9.4805,-0.06932
9.4844,-0.035017
9.4883,-0.061217
9.4922,-0.069307
9.4961,0.014351
9.5,7.4631e-05
9.5039,0.022228
9.5078,0.038981
9.5117,0.062593
9.5156,0.052389
9.5195,0.069167
9.5234,0.042175
9.5273,0.073034
9.5313,0.12648
9.5352,0.10283
9.5391,0.04962
9.543,0.049069
9.5469,0.077016
9.5508,0.045112
9.5547,0.0079515
9.5586,-0.007851
9.5625,0.0054932
9.5664,0.009832
9.5703,0.0083387
9.5742,0.0038985
9.5781,-0.054046
9.582,-0.060341
9.5859,-0.037633
9.5898,-0.024723
9.5938,-0.039425
9.5977,-0.032336
9.6016,-0.012687
9.6055,-0.017837
9.6094,-0.017423
9.6133,0.017981
9.6172,0.0071665
9.6211,-0.0031321
9.625,-0.0045483
9.6289,-0.018142
9.6328,-0.00027856
9.6367,0.025529
9.6406,0.033607
9.6445,0.010178
9.6484,-0.019658
9.6523,-0.016163
9.6563,0.027948
9.6602,-0.021256
9.6641,-0.012391
9.668,0.0093938
9.6719,0.058668
9.6758,0.17149
9.6797,0.38061
9.6836,0.75684
9.6875,1.1825
9.6914,1.4822
9.6953,1.508
9.6992,1.216
9.7031,0.69224
9.707,0.20855
9.7109,-0.20408
9.7148,-0.3702
9.7188,-0.47731
9.7227,-0.44919
9.7266,-0.33818
9.7305,-0.30275
9.7344,-0.23154
9.7383,-0.13948
9.7422,0.00026201
9.7461,0.0070937
9.75,-0.00049044
9.7539,0.033404
9.7578,0.11534
9.7617,0.20024
9.7656,0.20488
9.7695,0.1814
9.7734,0.16925
9.7773,0.1659
9.7813,0.17584
9.7852,0.19955
9.7891,0.13413
9.793,0.099521
9.7969,0.12016
9.8008,0.11333
9.8047,0.11869
9.8086,0.13062
9.8125,0.17956
9.8164,0.16915
9.8203,0.14381
9.8242,0.12714
9.8281,0.082277
9.832,0.13312
9.8359,0.17309
9.8398,0.15218
9.8438,0.11622
9.8477,0.079603
9.8516,0.12406
9.8555,0.1691
9.8594,0.15818
9.8633,0.16566
9.8672,0.17992
9.8711,0.17573
9.875,0.19274
9.8789,0.16375
9.8828,0.16397
9.8867,0.18655
9.8906,0.22327
9.8945,0.28063
9.8984,0.31815
9.9023,0.33643
9.9063,0.28287
9.9102,0.28147
9.9141,0.37397
9.918,0.46821
9.9219,0.50093
9.9258,0.52478
9.9297,0.51907
9.9336,0.56428
9.9375,0.57711
9.9414,0.60754
9.9453,0.62881
9.9492,0.66589
9.9531,0.6876
9.957,0.64412
9.9609,0.65596
9.9648,0.6492
9.9688,0.55092
9.9727,0.57085
9.9766,0.50264
9.9805,0.51789
9.9844,0.55297
9.9883,0.49494
9.9922,0.42423
9.9961,0.36231
10,0.36689
10.004,0.35763
10.008,0.32104
10.012,0.28819
10.016,0.28233
10.02,0.24819
10.023,0.21932
10.027,0.23293
10.031,0.18646
10.035,0.17822
10.039,0.19688
10.043,0.16362
10.047,0.20442
10.051,0.25389
10.055,0.32087
10.059,0.31971
10.063,0.29863
10.066,0.31759
10.07,0.339
10.074,0.33625
10.078,0.34806
10.082,0.34848
10.086,0.40617
10.09,0.39858
10.094,0.40953
10.098,0.42698
10.102,0.42264
10.105,0.41375
10.109,0.39116
10.113,0.46536
10.117,0.44299
10.121,0.44925
10.125,0.49842
10.129,0.55371
10.133,0.57937
10.137,0.59716
10.141,0.52848
10.145,0.54547
10.148,0.4879
10.152,0.4275
10.156,0.40295
10.16,0.35106
10.164,0.38067
10.168,0.34385
10.172,0.34648
10.176,0.39967
10.18,0.40633
10.184,0.42222
10.188,0.41576
10.191,0.39263
10.195,0.38745
10.199,0.37384
10.203,0.367
10.207,0.322
10.211,0.24282
10.215,0.25191
10.219,0.21657
10.223,0.19139
10.227,0.23711
10.23,0.25469
10.234,0.25302
10.238,0.21679
10.242,0.1538
10.246,0.14541
10.25,0.16759
10.254,0.18681
10.258,0.15085
10.262,0.18434
10.266,0.17124
10.27,0.13642
10.273,0.10592
10.277,0.088908
10.281,0.11386
10.285,0.089699
10.289,0.066827
10.293,0.072222
10.297,0.06874
10.301,0.080254
10.305,0.058947
10.309,0.055592
10.313,0.10647
10.316,0.11688
10.32,0.085592
10.324,0.098153
10.328,0.10248
10.332,0.090871
10.336,0.1011
10.34,0.047503
10.344,0.028298
10.348,0.067431
10.352,0.07331
10.355,0.039155
10.359,0.030884
10.363,0.06119
10.367,0.084855
10.371,0.084351
10.375,0.071507
10.379,0.09248
10.383,0.097147
10.387,0.14674
10.391,0.1405
10.395,0.13324
10.398,0.11011
10.402,0.096631
10.406,0.099157
10.41,0.097348
10.414,0.1357
10.418,0.1452
10.422,0.17265
10.426,0.14037
10.43,0.068339
10.434,0.033734
10.438,0.16125
10.441,0.21086
10.445,0.19657
10.449,0.12724
10.453,0.10701
10.457,0.11173
10.461,0.12834
10.465,0.13534
10.469,0.096613
10.473,0.016837
10.477,-0.0022235
10.48,-0.01437
10.484,-0.030205
10.488,-0.046772
10.492,-0.035149
10.496,-0.01409
10.5,-0.013307
10.504,-0.040229
10.508,-0.076467
10.512,-0.051051
10.516,-0.0149
10.52,0.0076807
10.523,0.0099118
10.527,-0.00027336
10.531,-0.0024643
10.535,0.00023768
10.539,-0.0020478
10.543,-0.022086
10.547,-0.021653
10.551,-0.027506
10.555,-0.072675
10.559,-0.10711
10.563,-0.05573
10.566,0.010352
10.57,0.22384
10.574,0.53641
10.578,0.94526
10.582,1.3247
10.586,1.4453
10.59,1.4606
10.594,1.1901
10.598,0.67747
10.602,0.26465
10.605,-0.077147
10.609,-0.28473
10.613,-0.35032
10.617,-0.3681
10.621,-0.30223
10.625,-0.24127
10.629,-0.10316
10.633,0.035387
10.637,0.088599
10.641,0.075163
10.645,0.10283
10.648,0.11339
10.652,0.1339
10.656,0.13781
10.66,0.14055
10.664,0.13521
10.668,0.16398
10.672,0.15834
10.676,0.14626
10.68,0.14472
10.684,0.15311
10.688,0.12104
10.691,0.16627
10.695,0.212
10.699,0.23681
10.703,0.19331
10.707,0.18493
10.711,0.21065
10.715,0.28476
10.719,0.28414
10.723,0.25099
10.727,0.26233
10.73,0.2666
10.734,0.2568
10.738,0.2503
10.742,0.24323
10.746,0.24559
10.75,0.26591
10.754,0.26011
10.758,0.25271
10.762,0.28484
10.766,0.28638
10.77,0.35794
10.773,0.38976
10.777,0.4176
10.781,0.44501
10.785,0.41132
10.789,0.38282
10.793,0.45291
10.797,0.5152
10.801,0.54878
10.805,0.57961
10.809,0.58505
10.813,0.60715
10.816,0.61864
10.82,0.63632
10.824,0.67874
10.828,0.71077
10.832,0.76523
10.836,0.78441
10.84,0.76168
10.844,0.74213
10.848,0.75553
10.852,0.75183
10.855,0.72598
10.859,0.70244
10.863,0.67421
10.867,0.62744
10.871,0.59256
10.875,0.53395
10.879,0.47325
10.883,0.43995
10.887,0.39496
10.891,0.35408
10.895,0.30137
10.898,0.28659
10.902,0.27866
10.906,0.24202
10.91,0.20364
10.914,0.15531
10.918,0.12783
10.922,0.10892
10.926,0.11763
10.93,0.11321
10.934,0.10633
10.938,0.080924
10.941,0.04325
10.945,0.014949
10.949,0.049103
10.953,0.043732
10.957,0.046798
10.961,0.056496
10.965,0.059269
10.969,0.088148
10.973,0.087456
10.977,0.095488
10.98,0.13504
10.984,0.14638
10.988,0.1322
10.992,0.10056
10.996,0.12091
11,0.16882
11.004,0.1842
11.008,0.18292
11.012,0.16014
11.016,0.15655
11.02,0.15238
11.023,0.14915
11.027,0.14801
11.031,0.16857
11.035,0.15503
11.039,0.1409
11.043,0.12836
11.047,0.13825
11.051,0.13992
11.055,0.13878
11.059,0.15401
11.063,0.1458
11.066,0.17264
11.07,0.13406
11.074,0.12715
11.078,0.11966
11.082,0.1095
11.086,0.12322
11.09,0.11061
11.094,0.12029
11.098,0.11382
11.102,0.099263
11.105,0.10851
11.109,0.081846
11.113,0.11158
11.117,0.11564
11.121,0.090997
11.125,0.16451
11.129,0.18841
11.133,0.14149
11.137,0.13935
11.141,0.1334
11.145,0.11511
11.148,0.13714
11.152,0.15889
11.156,0.18713
11.16,0.17462
11.164,0.19659
11.168,0.20724
11.172,0.18839
11.176,0.18159
11.18,0.17291
11.184,0.15645
11.188,0.15666
11.191,0.171
11.195,0.18037
11.199,0.21333
11.203,0.19616
11.207,0.20229
11.211,0.17684
11.215,0.16502
11.219,0.15321
11.223,0.13757
11.227,0.13175
11.23,0.12406
11.234,0.11586
11.238,0.1151
11.242,0.095304
11.246,0.054307
11.25,0.08493
11.254,0.13806
11.258,0.15737
11.262,0.13954
11.266,0.14126
11.27,0.11861
11.273,0.10036
11.277,0.090195
11.281,0.10232
11.285,0.12087
11.289,0.14404
11.293,0.14385
11.297,0.15296
11.301,0.15429
11.305,0.17409
11.309,0.1776
11.313,0.16287
11.316,0.15463
11.32,0.11488
11.324,0.084294
11.328,0.11242
11.332,0.10774
11.336,0.163
11.34,0.18199
11.344,0.14465
11.348,0.14447
11.352,0.11039
11.355,0.049785
11.359,0.079622
11.363,0.087469
11.367,0.020605
11.371,0.0157
11.375,0.032726
11.379,0.071613
11.383,0.050718
11.387,0.014035
11.391,0.0024582
11.395,-0.040485
11.398,-0.044114
11.402,-0.027902
11.406,-0.027333
11.41,-0.039666
11.414,-0.037999
11.418,-0.027527
11.422,-0.0301
11.426,-0.011173
11.43,0.0082672
11.434,-0.018875
11.438,-0.080772
11.441,-0.044936
11.445,-0.00058104
11.449,0.001447
11.453,-0.011085
11.457,-0.025988
11.461,-0.025666
11.465,-0.020213
11.469,-0.031773
11.473,-0.025654
11.477,-0.022195
11.48,-0.037839
11.484,-0.010851
11.488,0.010233
11.492,0.15235
11.496,0.42349
11.5,0.78163
11.504,1.2103
11.508,1.4109
11.512,1.3649
11.516,0.98329
11.52,0.48006
11.523,0.06568
11.527,-0.25103
11.531,-0.38923
11.535,-0.41182
11.539,-0.48884
11.543,-0.45752
11.547,-0.36021
11.551,-0.24435
11.555,-0.13324
11.559,-0.092584
11.563,-0.047589
11.566,-0.03403
11.57,0.0013928
11.574,0.024132
11.578,0.047748
11.582,0.073321
11.586,0.051593
11.59,0.074735
11.594,0.086636
11.598,0.09588
11.602,0.069795
11.605,0.073146
11.609,0.092591
11.613,0.091781
11.617,0.076918
11.621,0.0894
11.625,0.11163
11.629,0.11973
11.633,0.14155
11.637,0.16252
11.641,0.16063
11.645,0.14339
11.648,0.15531
11.652,0.15324
11.656,0.13712
11.66,0.15476
11.664,0.1802
11.668,0.20819
11.672,0.225
11.676,0.24363
11.68,0.24914
11.684,0.26137
11.688,0.25573
11.691,0.2607
11.695,0.29641
11.699,0.3229
11.703,0.32452
11.707,0.33481
11.711,0.34958
11.715,0.37965
11.719,0.40779
11.723,0.42065
11.727,0.44008
11.73,0.46032
11.734,0.49746
11.738,0.52191
11.742,0.54096
11.746,0.54387
11.75,0.55631
11.754,0.57562
11.758,0.54172
11.762,0.49016
11.766,0.54564
11.77,0.58058
11.773,0.54853
11.777,0.52371
11.781,0.50301
11.785,0.50836
11.789,0.49858
11.793,0.44063
11.797,0.34967
11.801,0.32132
11.805,0.24906
11.809,0.20315
11.813,0.18003
11.816,0.13594
11.82,0.11127
11.824,0.1001
11.828,0.055907
11.832,0.054788
11.836,0.00060131
11.84,-0.011669
11.844,0.0044917
11.848,0.014897
11.852,-0.0041098
11.855,-0.016034
11.859,-0.021308
11.863,-0.0096194
11.867,-0.019697
11.871,-0.020023
11.875,-0.026248
11.879,-0.016015
11.883,-0.032741
11.887,-0.039932
11.891,-0.060089
11.895,-0.044893
11.898,-0.024127
11.902,-0.0060151
11.906,-0.0052693
11.91,-0.016625
11.914,-0.032292
11.918,-0.0018582
11.922,0.0045744
11.926,0.014196
11.93,-0.0066746
11.934,-0.0060372
11.938,-0.020169
11.941,-0.0051482
11.945,-0.013479
11.949,0.028763
11.953,-0.030381
11.957,-0.020706
11.961,-0.012963
11.965,-0.010756
11.969,-0.0025473
11.973,0.0016387
11.977,-0.0031021
11.98,-0.00624
11.984,0.0031876
11.988,0.0028231
11.992,0.021082
11.996,0.011014
12,0.0047853
12.004,0.0042705
12.008,0.0079554
12.012,-0.002623
12.016,0.021866
12.02,0.022789
12.023,0.0099532
12.027,0.0019666
12.031,-0.0010988
12.035,-0.001695
12.039,-0.036892
12.043,-0.034137
12.047,-0.032013
12.051,-0.001023
12.055,-0.01026
12.059,-0.015873
12.063,-0.024498
12.066,-0.019185
12.07,-0.0028932
12.074,-0.011465
12.078,-0.0014843
12.082,0.0020956
12.086,-0.0007977
12.09,0.0002936
12.094,0.003855
12.098,-0.0038166
12.102,-0.015076
12.105,0.018037
12.109,0.0042172
12.113,0.0028928
12.117,-0.0015868
12.121,-6.1918e-05
12.125,-0.013736
12.129,-0.059054
12.133,-0.011676
12.137,-0.023059
12.141,-0.0061521
12.145,-0.0085548
12.148,-0.0098569
12.152,-0.0091209
12.156,0.00072133
12.16,-0.014444
12.164,-0.0044915
12.168,0.01976
12.172,0.0080416
12.176,0.043149
12.18,0.081522
12.184,0.074838
12.188,0.065504
12.191,0.053377
12.195,0.090745
12.199,0.096183
12.203,0.099909
12.207,0.099183
12.211,0.12725
12.215,0.17886
12.219,0.17819
12.223,0.14502
12.227,0.11604
12.23,0.073175
12.234,0.06653
12.238,0.097985
12.242,0.094986
12.246,0.079747
12.25,0.10816
12.254,0.11662
12.258,0.096175
12.262,0.043153
12.266,0.027006
12.27,0.031361
12.273,-0.031336
12.277,0.014603
12.281,0.044264
12.285,0.0056454
12.289,0.020346
12.293,0.030884
12.297,0.047718
12.301,0.0407
12.305,0.077987
12.309,0.02745
12.313,0.055114
12.316,0.0023835
12.32,-0.0014273
12.324,0.02529
12.328,0.014381
12.332,0.00024596
12.336,0.029332
12.34,0.0080255
12.344,0.02215
12.348,0.01747
12.352,0.010646
12.355,0.05209
12.359,0.16077
12.363,0.31267
12.367,0.54053
12.371,0.94461
12.375,1.3619
12.379,1.5245
12.383,1.3663
12.387,0.89427
12.391,0.39215
12.395,-0.041507
12.398,-0.28706
12.402,-0.33144
12.406,-0.33644
12.41,-0.33167
12.414,-0.34861
12.418,-0.22352
12.422,-0.14421
12.426,-0.040653
12.43,0.074096
12.434,0.12972
12.438,0.18622
12.441,0.17228
12.445,0.19895
12.449,0.20162
12.453,0.21145
12.457,0.19763
12.461,0.24917
12.465,0.26191
12.469,0.24994
12.473,0.26105
12.477,0.23539
12.48,0.21235
12.484,0.26778
12.488,0.29675
12.492,0.24244
12.496,0.24648
12.5,0.2801
12.504,0.3071
12.508,0.30137
12.512,0.31036
12.516,0.28769
12.52,0.32569
12.523,0.28574
12.527,0.29217
12.531,0.34549
12.535,0.34876
12.539,0.32536
12.543,0.32735
12.547,0.34688
12.551,0.40738
12.555,0.36655
12.559,0.37225
12.563,0.45052
12.566,0.44628
12.57,0.52867
12.574,0.48614
12.578,0.49952
12.582,0.53967
12.586,0.569
12.59,0.58622
12.594,0.64671
12.598,0.57329
12.602,0.62745
12.605,0.65305
12.609,0.65566
12.613,0.66685
12.617,0.70826
12.621,0.74419
12.625,0.70664
12.629,0.73941
12.633,0.73107
12.637,0.72908
12.641,0.68981
12.645,0.67412
12.648,0.69234
12.652,0.65098
12.656,0.64503
12.66,0.57216
12.664,0.50867
12.668,0.47611
12.672,0.43029
12.676,0.37776
12.68,0.30302
12.684,0.29369
12.688,0.27131
12.691,0.23804
12.695,0.23642
12.699,0.20099
12.703,0.20493
12.707,0.11655
12.711,0.077286
12.715,0.12637
12.719,0.21014
12.723,0.1801
12.727,0.20812
12.73,0.16438
12.734,0.14522
12.738,0.13443
12.742,0.17491
12.746,0.10591
12.75,0.16918
12.754,0.12599
12.758,0.11626
12.762,0.077391
12.766,0.13026
12.77,0.17352
12.773,0.055088
12.777,0.11739
12.781,0.1698
12.785,0.10832
12.789,0.12199
12.793,0.11467
12.797,0.13511
12.801,0.13412
12.805,0.13572
12.809,0.15599
12.813,0.11639
12.816,0.14841
12.82,0.14853
12.824,0.094924
12.828,0.16644
12.832,0.15334
12.836,0.14146
12.84,0.1523
12.844,0.14668
12.848,0.17473
12.852,0.15041
12.855,0.14851
12.859,0.14646
12.863,0.14043
12.867,0.11297
12.871,0.1085
12.875,0.1592
12.879,0.11274
12.883,0.13053
12.887,0.12105
12.891,0.13672
12.895,0.092159
12.898,0.1029
12.902,0.10397
12.906,0.12082
12.91,0.059049
12.914,0.092678
12.918,0.12968
12.922,0.1296
12.926,0.054938
12.93,0.058366
12.934,0.093657
12.938,0.11292
12.941,0.14818
12.945,0.093208
12.949,0.072257
12.953,0.080789
12.957,0.078126
12.961,0.083164
12.965,0.1161
12.969,0.032178
12.973,0.083615
12.977,0.046613
12.98,0.057267
12.984,0.065524
12.988,0.097852
12.992,0.12382
12.996,0.11464
13,0.14699
13.004,0.07582
13.008,0.16164
13.012,0.13811
13.016,0.18034
13.02,0.19932
13.023,0.24706
13.027,0.25209
13.031,0.17934
13.035,0.15988
13.039,0.14638
13.043,0.15731
13.047,0.17413
13.051,0.10122
13.055,0.081289
13.059,0.11586
13.063,0.090338
13.066,0.12948
13.07,0.1161
13.074,0.064693
13.078,0.081559
13.082,-0.00040439
13.086,0.062574
13.09,0.011721
13.094,0.056406
13.098,0.044091
13.102,0.054542
13.105,0.040881
13.109,0.058785
13.113,0.019328
13.117,-0.0095521
13.121,0.010513
13.125,0.0019936
13.129,0.0066469
13.133,0.010626
13.137,0.029149
13.141,0.021683
13.145,0.085089
13.148,0.080387
13.152,0.043926
13.156,0.019775
13.16,-0.015868
13.164,-0.0094885
13.168,0.091924
13.172,0.19353
13.176,0.4325
13.18,0.83574
13.184,1.2322
13.188,1.5912
13.191,1.539
13.195,1.5408
13.199,0.74991
13.203,0.75165
13.207,-0.14101
13.211,-0.37334
13.215,-0.40765
13.219,-0.38645
13.223,-0.36506
13.227,-0.31642
13.23,-0.24041
13.234,-0.057237
13.238,-0.021507
13.242,0.053363
13.246,0.054071
13.25,0.14325
13.254,0.096026
13.258,0.10186
13.262,0.049474
13.266,0.014591
13.27,0.1315
13.273,0.20584
13.277,0.26812
13.281,0.20308
13.285,0.18987
13.289,0.26225
13.293,0.27035
13.297,0.23127
13.301,0.19194
13.305,0.18015
13.309,0.20808
13.313,0.20295
13.316,0.24714
13.32,0.24775
13.324,0.28555
13.328,0.29116
13.332,0.20726
13.336,0.20526
13.34,0.27313
13.344,0.29807
13.348,0.32263
13.352,0.28854
13.355,0.33759
13.359,0.33872
13.363,0.30032
13.367,0.30849
13.371,0.30482
13.375,0.363
13.379,0.41987
13.383,0.41001
13.387,0.40064
13.391,0.40726
13.395,0.4267
13.398,0.43004
13.402,0.43726
13.406,0.43999
13.41,0.51713
13.414,0.53779
13.418,0.54818
13.422,0.63047
13.426,0.56503
13.43,0.64491
13.434,0.65343
13.438,0.58261
13.441,0.61246
13.445,0.57961
13.449,0.56716
13.453,0.59364
13.457,0.54769
13.461,0.49279
13.465,0.48525
13.469,0.41517
13.473,0.35207
13.477,0.34398
13.48,0.2934
13.484,0.17595
13.488,0.18484
13.492,0.16061
13.496,0.15548
13.5,0.045618
13.504,0.079837
13.508,0.10625
13.512,0.10857
13.516,0.021366
13.52,0.020696
13.523,0.041937
13.527,0.00020235
13.531,-0.052075
13.535,-0.00087143
13.539,0.017215
13.543,0.036732
13.547,0.014693
13.551,-0.073278
13.555,-0.085966
13.559,0.0085061
13.563,0.026877
13.566,0.044154
13.57,0.095244
13.574,0.078889
13.578,0.031941
13.582,0.059628
13.586,0.0021271
13.59,0.033541
13.594,0.027223
13.598,0.037699
13.602,0.048884
13.605,0.0063278
13.609,0.036964
13.613,0.047251
13.617,0.014686
13.621,0.0036758
13.625,-0.041892
13.629,0.026988
13.633,-0.013552
13.637,-0.014075
13.641,0.025925
13.645,0.013915
13.648,0.04286
13.652,0.024917
13.656,0.024273
13.66,0.014604
13.664,0.011633
13.668,-0.0056278
13.672,0.035882
13.676,-0.031089
13.68,-0.0048872
13.684,-0.0044419
13.688,-0.00039924
13.691,0.033854
13.695,0.01004
13.699,0.0016524
13.703,0.0014781
13.707,-0.0039692
13.711,0.018703
13.715,-0.020946
13.719,-0.0072331
13.723,-0.034132
13.727,-0.046182
13.73,-0.0098454
13.734,-0.015419
13.738,-0.023091
13.742,-0.045772
13.746,-0.01646
13.75,-0.036559
13.754,-0.019882
13.758,-0.031411
13.762,-0.060689
13.766,-0.13036
13.77,-0.082699
13.773,-0.082065
13.777,-0.045522
13.781,-0.034298
13.785,-0.0093058
13.789,0.071359
13.793,0.097999
13.797,0.039385
13.801,-0.0079106
13.805,0.046985
13.809,0.069636
13.813,0.12495
13.816,0.15005
13.82,0.099769
13.824,0.10596
13.828,0.041101
13.832,0.061344
13.836,0.095358
13.84,0.073906
13.844,0.057786
13.848,0.06164
13.852,0.019116
13.855,0.0089711
13.859,0.019665
13.863,0.032736
13.867,-0.022352
13.871,-0.0328
13.875,-0.041664
13.879,-0.048584
13.883,-0.025361
13.887,-0.0113
13.891,-0.04376
13.895,-0.040523
13.898,-0.047457
13.902,-0.041917
13.906,-0.021378
13.91,-0.047864
13.914,-0.010741
13.918,-0.042353
13.922,-0.00047377
13.926,-0.011462
13.93,-0.065653
13.934,-0.028828
13.938,-0.034197
13.941,-0.045987
13.945,-0.084896
13.949,-0.049811
13.953,-0.12053
13.957,-0.078381
13.961,-0.019069
13.965,0.11763
13.969,0.40275
13.973,0.7936
13.977,1.3138
13.98,1.6274
13.984,1.6565
13.988,1.4089
13.992,0.84451
13.996,0.23271
14,-0.055773
14.004,-0.39546
14.008,-0.47422
14.012,-0.49197
14.016,-0.47077
14.02,-0.37796
14.023,-0.24152
14.027,-0.12419
14.031,-0.047612
14.035,0.035813
14.039,0.0096102
14.043,0.049252
14.047,0.051603
14.051,0.086695
14.055,0.10397
14.059,0.11259
14.063,0.14897
14.066,0.14496
14.07,0.14801
14.074,0.16203
14.078,0.16565
14.082,0.16509
14.086,0.12955
14.09,0.14954
14.094,0.14695
14.098,0.1476
14.102,0.15503
14.105,0.18157
14.109,0.19187
14.113,0.18278
14.117,0.1863
14.121,0.17676
14.125,0.21251
14.129,0.20982
14.133,0.24023
14.137,0.23897
14.141,0.2618
14.145,0.27236
14.148,0.26885
14.152,0.27039
14.156,0.2676
14.16,0.29525
14.164,0.31019
14.168,0.33321
14.172,0.35838
14.176,0.33415
14.18,0.3749
14.184,0.39322
14.188,0.43266
14.191,0.46972
14.195,0.49862
14.199,0.52305
14.203,0.50247
14.207,0.52919
14.211,0.56342
14.215,0.58156
14.219,0.60784
14.223,0.58558
14.227,0.59065
14.23,0.57523
14.234,0.60561
14.238,0.58975
14.242,0.57807
14.246,0.57497
14.25,0.52404
14.254,0.52699
14.258,0.48522
14.262,0.42613
14.266,0.3537
14.27,0.34732
14.273,0.32558
14.277,0.29749
14.281,0.24277
14.285,0.18013
14.289,0.15418
14.293,0.12931
14.297,0.12889
14.301,0.075094
14.305,0.091033
14.309,0.058285
14.313,0.086691
14.316,0.046288
14.32,0.03307
14.324,0.054826
14.328,0.061358
14.332,0.017401
14.336,0.02926
14.34,0.071838
14.344,0.055416
14.348,0.059326
14.352,0.046715
14.355,0.048306
14.359,0.035036
14.363,0.055584
14.367,0.064228
14.371,0.056638
14.375,0.050125
14.379,0.062574
14.383,0.059439
14.387,0.063727
14.391,0.038584
14.395,0.075316
14.398,0.056436
14.402,0.0695
14.406,0.066692
14.41,0.092871
14.414,0.097119
14.418,0.1186
14.422,0.07069
14.426,0.050327
14.43,0.06573
14.434,0.079829
14.438,0.10351
14.441,0.096253
14.445,0.089995
14.449,0.082722
14.453,0.067076
14.457,0.072917
14.461,0.081203
14.465,0.11199
14.469,0.10259
14.473,0.082008
14.477,0.086519
14.48,0.10155
14.484,0.090184
14.488,0.070876
14.492,0.076227
14.496,0.087485
14.5,0.098881
14.504,0.071829
14.508,0.066263
14.512,0.060114
14.516,0.072853
14.52,0.06907
14.523,0.064848
14.527,0.070644
14.531,0.08653
14.535,0.095341
14.539,0.074071
14.543,0.056544
14.547,0.076081
14.551,0.067051
14.555,0.052244
14.559,0.033103
14.563,0.040495
14.566,0.041173
14.57,0.069467
14.574,0.078064
14.578,0.088169
14.582,0.071509
14.586,0.074099
14.59,0.079638
14.594,0.10796
14.598,0.15229
14.602,0.15564
14.605,0.12632
14.609,0.12987
14.613,0.10926
14.617,0.16776
14.621,0.17965
14.625,0.21953
14.629,0.19405
14.633,0.20997
14.637,0.18419
14.641,0.15393
14.645,0.15562
14.648,0.15938
14.652,0.14064
14.656,0.12802
14.66,0.097005
14.664,0.086966
14.668,0.13786
14.672,0.13012
14.676,0.087383
14.68,0.037574
14.684,0.030092
14.688,0.045897
14.691,0.020297
14.695,0.01243
14.699,0.0038339
14.703,0.027757
14.707,0.007821
14.711,-0.0010881
14.715,0.0034091
14.719,0.013235
14.723,0.0081957
14.727,0.037478
14.73,0.034585
14.734,0.0057927
14.738,-0.001444
14.742,0.0028504
14.746,0.0095165
14.75,-0.018444
14.754,-0.0048706
14.758,0.0044395
14.762,0.013092
14.766,0.00075011
14.77,0.0033291
14.773,0.072108
14.777,0.21488
14.781,0.45067
14.785,0.76637
14.789,1.2084
14.793,1.6065
14.797,1.7073
14.801,1.7108
14.805,1.3005
14.809,0.56204
14.813,0.028602
14.816,-0.31177
14.82,-0.4249
14.824,-0.42675
14.828,-0.44138
14.832,-0.36968
14.836,-0.25846
14.84,-0.15353
14.844,-0.055593
14.848,0.048391
14.852,0.0545
14.855,0.088585
14.859,0.1262
14.863,0.10409
14.867,0.10224
14.871,0.11596
14.875,0.11987
14.879,0.12327
14.883,0.13799
14.887,0.15378
14.891,0.15817
14.895,0.16637
14.898,0.16873
14.902,0.18753
14.906,0.18664
14.91,0.18696
14.914,0.16391
14.918,0.15983
14.922,0.19988
14.926,0.21713
14.93,0.23525
14.934,0.24867
14.938,0.25163
14.941,0.26396
14.945,0.24707
14.949,0.26076
14.953,0.26515
14.957,0.26945
14.961,0.28565
14.965,0.30604
14.969,0.30312
14.973,0.32681
14.977,0.34069
14.98,0.3599
14.984,0.3672
14.988,0.35669
14.992,0.38765
14.996,0.40822
15,0.44349
15.004,0.45713
15.008,0.4717
15.012,0.4665
15.016,0.51922
15.02,0.55318
15.023,0.57062
15.027,0.57645
15.031,0.60391
15.035,0.61781
15.039,0.61093
15.043,0.61725
15.047,0.61167
15.051,0.64208
15.055,0.63808
15.059,0.63314
15.063,0.63158
15.066,0.59498
15.07,0.54315
15.074,0.53171
15.078,0.48219
15.082,0.41917
15.086,0.38559
15.09,0.34579
15.094,0.32151
15.098,0.28279
15.102,0.24393
15.105,0.18834
15.109,0.16902
15.113,0.12807
15.117,0.11163
15.121,0.10255
15.125,0.119
15.129,0.13783
15.133,0.12384
15.137,0.12204
15.141,0.12875
15.145,0.12514
15.148,0.12637
15.152,0.12925
15.156,0.13653
15.16,0.14216
15.164,0.14785
15.168,0.15023
15.172,0.12888
15.176,0.10414
15.18,0.090428
15.184,0.10463
15.188,0.10585
15.191,0.10563
15.195,0.076565
15.199,0.09315
15.203,0.1093
15.207,0.089249
15.211,0.11016
15.215,0.1023
15.219,0.092849
15.223,0.080875
15.227,0.096814
15.23,0.10165
15.234,0.093787
15.238,0.088452
15.242,0.090835
15.246,0.076776
15.25,0.10902
15.254,0.10888
15.258,0.093312
15.262,0.085243
15.266,0.080494
15.27,0.090892
15.273,0.09242
15.277,0.098421
15.281,0.082932
15.285,0.079634
15.289,0.049364
15.293,0.045059
15.297,0.052584
15.301,0.056794
15.305,0.045212
15.309,0.045459
15.313,0.043906
15.316,0.051227
15.32,0.018738
15.324,-0.0097812
15.328,-0.0042564
15.332,0.019229
15.336,0.028798
15.34,-0.011899
15.344,-0.026268
15.348,0.020308
15.352,0.013733
15.355,0.02173
15.359,0.011989
15.363,0.0062172
15.367,0.012854
15.371,-0.013177
15.375,-0.032281
15.379,-0.041068
15.383,-0.018118
15.387,-0.0030974
15.391,0.0039213
15.395,0.00063057
15.398,-0.019028
15.402,-0.017767
15.406,-0.026527
15.41,-0.039033
15.414,-0.020379
15.418,0.00029938
15.422,0.00028305
15.426,-0.0061477
15.43,-0.0039193
15.434,-0.0091149
15.438,-0.042866
15.441,-0.016102
15.445,0.001074
15.449,-0.0033091
15.453,-0.045479
15.457,-0.021653
15.461,0.014079
15.465,0.030415
15.469,0.019277
15.473,0.02971
15.477,0.027599
15.48,0.035806
15.484,0.042361
15.488,0.047983
15.492,0.056135
15.496,0.061913
15.5,0.071592
15.504,0.06613
15.508,0.070339
15.512,0.089844
15.516,0.1121
15.52,0.13269
15.523,0.14205
15.527,0.16894
15.531,0.19157
15.535,0.18328
15.539,0.1584
15.543,0.16779
15.547,0.19333
15.551,0.22134
15.555,0.23327
15.559,0.24709
15.563,0.2498
15.566,0.24473
15.57,0.19719
15.574,0.1661
15.578,0.18485
15.582,0.19943
15.586,0.17219
15.59,0.13889
15.594,0.12803
15.598,0.12973
15.602,0.14463
15.605,0.12925
15.609,0.070393
15.613,0.053948
15.617,0.066792
15.621,0.068393
15.625,0.086951
15.629,0.079698
15.633,0.076852
15.637,0.03882
15.641,-0.012186
15.645,0.012689
15.648,0.0044679
15.652,0.013204
15.656,-0.0035813
15.66,-0.002472
15.664,0.0093923
15.668,-0.0013806
15.672,-0.015534
15.676,-0.021746
15.68,-0.019871
15.684,0.0028566
15.688,-0.024315
15.691,-0.040444
15.695,-0.038822
15.699,-0.054428
15.703,-0.041321
15.707,-0.0033958
15.711,0.12657
15.715,0.40922
15.719,0.79162
15.723,1.2711
15.727,1.6923
15.73,1.8515
15.734,1.6728
15.738,1.413
15.742,0.66936
15.746,0.079122
15.75,-0.30427
15.754,-0.45613
15.758,-0.47349
15.762,-0.43046
15.766,-0.31445
15.77,-0.17347
15.773,-0.068179
15.777,0.022981
15.781,0.063592
15.785,0.078248
15.789,0.074016
15.793,0.097271
15.797,0.14217
15.801,0.12924
15.805,0.14328
15.809,0.15121
15.813,0.15337
15.816,0.15223
15.82,0.13133
15.824,0.12118
15.828,0.14646
15.832,0.17484
15.836,0.19991
15.84,0.20062
15.844,0.19628
15.848,0.20292
15.852,0.19968
15.855,0.19205
15.859,0.18501
15.863,0.20307
15.867,0.21775
15.871,0.21808
15.875,0.2097
15.879,0.23356
15.883,0.22988
15.887,0.22599
15.891,0.23617
15.895,0.26309
15.898,0.29882
15.902,0.277
15.906,0.29276
15.91,0.34049
15.914,0.35605
15.918,0.34421
15.922,0.35143
15.926,0.37343
15.93,0.40785
15.934,0.43441
15.938,0.45023
15.941,0.47465
15.945,0.51796
15.949,0.55018
15.953,0.54627
15.957,0.55095
15.961,0.5666
15.965,0.59813
15.969,0.60644
15.973,0.60473
15.977,0.623
15.98,0.62254
15.984,0.61818
15.988,0.62263
15.992,0.62946
15.996,0.62729
16,0.61957
16.004,0.57739
16.008,0.52158
16.012,0.4771
16.016,0.48116
16.02,0.44016
16.023,0.38726
16.027,0.36466
16.031,0.32332
16.035,0.2858
16.039,0.23697
16.043,0.19723
16.047,0.1844
16.051,0.14908
16.055,0.097745
16.059,0.04635
16.063,0.035998
16.066,0.059982
16.07,0.089743
16.074,0.10444
16.078,0.076874
16.082,0.065617
16.086,0.040014
16.09,0.049901
16.094,0.064771
16.098,0.059237
16.102,0.042097
16.105,0.017608
16.109,0.031565
16.113,0.038172
16.117,0.021563
16.121,0.030418
16.125,0.0053821
16.129,0.02853
16.133,0.036322
16.137,0.027027
16.141,0.031874
16.145,0.027423
16.148,0.049086
16.152,0.058134
16.156,0.054134
16.16,0.039393
16.164,0.067571
16.168,0.059478
16.172,0.048722
16.176,0.054415
16.18,0.067327
16.184,0.063151
16.188,0.053644
16.191,0.050129
16.195,0.030753
16.199,0.049102
16.203,0.032983
16.207,0.032447
16.211,0.019512
16.215,0.023748
16.219,0.021354
16.223,0.03339
16.227,0.03995
16.23,0.041612
16.234,0.063833
16.238,0.040984
16.242,0.051965
16.246,0.056822
16.25,0.067309
16.254,0.050828
16.258,0.045603
16.262,0.027041
16.266,0.03553
16.27,0.035586
16.273,0.020863
16.277,0.0036198
16.281,0.02915
16.285,0.010115
16.289,-0.029903
16.293,-0.036956
16.297,-0.038884
16.301,-0.017439
16.305,-0.0096923
16.309,-0.020836
16.313,-0.024331
16.316,-0.0083469
16.32,-0.0089464
16.324,-0.023316
16.328,-0.0083999
16.332,-0.017856
16.336,-0.041226
16.34,-0.031055
16.344,-0.030616
16.348,-0.021301
16.352,-0.024531
16.355,-0.024655
16.359,-0.024557
16.363,-0.0091654
16.367,-0.023195
16.371,-0.010751
16.375,-0.0026292
16.379,0.011194
16.383,-0.0031773
16.387,-0.010549
16.391,-0.012218
16.395,-0.028812
16.398,-0.020087
16.402,-0.014242
16.406,-0.035438
16.41,-0.028503
16.414,-0.023799
16.418,-0.0034406
16.422,-0.013946
16.426,-0.02863
16.43,-0.021673
16.434,-0.018679
16.438,-0.040707
16.441,-0.045854
16.445,-0.023735
16.449,-0.022888
16.453,-0.015906
16.457,-0.0024299
16.461,-0.03691
16.465,-0.033018
16.469,-0.0084946
16.473,-0.0024306
16.477,-0.00083416
16.48,-0.00089264
16.484,-0.015299
16.488,-0.018523
16.492,-0.028523
16.496,-0.017892
16.5,-0.002209
16.504,0.027397
16.508,0.0027723
16.512,-0.009228
16.516,0.0063981
16.52,-0.0089845
16.523,-0.0178
16.527,-0.013054
16.531,0.039297
16.535,0.024217
16.539,0.02407
16.543,0.034384
16.547,0.11098
16.551,0.1283
16.555,0.11994
16.559,0.11332
16.563,0.13267
16.566,0.11538
16.57,0.10675
16.574,0.11031
16.578,0.16336
16.582,0.1887
16.586,0.17158
16.59,0.12171
16.594,0.12096
16.598,0.113
16.602,0.10902
16.605,0.12609
16.609,0.11699
16.613,0.10659
16.617,0.082925
16.621,0.071236
16.625,0.099072
16.629,0.098206
16.633,0.045416
16.637,0.020396
16.641,0.025381
16.645,0.030153
16.648,0.0035547
16.652,0.0076109
16.656,0.012608
16.66,0.011909
16.664,0.024989
16.668,0.018527
16.672,-0.01094
16.676,-0.0086699
16.68,0.0022571
16.684,0.00099816
16.688,0.0018334
16.691,-0.016153
16.695,-2.233e-05
16.699,-0.0071849
16.703,-0.0028775
16.707,-0.00080348
16.711,-0.0084633
16.715,-0.0071776
16.719,0.0034142
16.723,-0.012893
16.727,-0.05819
16.73,-0.028912
16.734,0.03982
16.738,0.19575
16.742,0.49405
16.746,0.89094
16.75,1.3799
16.754,1.5843
16.758,1.7881
16.762,1.736
16.766,1.179
16.77,0.47532
16.773,-0.026842
16.777,-0.32627
16.781,-0.41372
16.785,-0.41261
16.789,-0.36404
16.793,-0.25944
16.797,-0.087751
16.801,0.024435
16.805,0.099048
16.809,0.092743
16.813,0.11925
16.816,0.14505
16.82,0.14625
16.824,0.12192
16.828,0.086198
16.832,0.12823
16.836,0.14364
16.84,0.16223
16.844,0.16994
16.848,0.16185
16.852,0.19033
16.855,0.22248
16.859,0.22875
16.863,0.21165
16.867,0.24793
16.871,0.26531
16.875,0.28925
16.879,0.31457
16.883,0.29445
16.887,0.27029
16.891,0.26071
16.895,0.26656
16.898,0.27984
16.902,0.30935
16.906,0.31427
16.91,0.29913
16.914,0.29259
16.918,0.32304
16.922,0.32674
16.926,0.32423
16.93,0.3389
16.934,0.31086
16.938,0.34291
16.941,0.39263
16.945,0.41133
16.949,0.40228
16.953,0.4049
16.957,0.42441
16.961,0.46483
16.965,0.48967
16.969,0.48451
16.973,0.49674
16.977,0.53125
16.98,0.5905
16.984,0.60871
16.988,0.62008
16.992,0.63822
16.996,0.62413
17,0.65417
17.004,0.6884
17.008,0.67258
17.012,0.68092
17.016,0.67664
17.02,0.68592
17.023,0.65388
17.027,0.64376
17.031,0.61244
17.035,0.55508
17.039,0.51049
17.043,0.4905
17.047,0.44937
17.051,0.39519
17.055,0.32774
17.059,0.25142
17.063,0.22112
17.066,0.21923
17.07,0.1727
17.074,0.13994
17.078,0.10193
17.082,0.069893
17.086,0.055171
17.09,0.033958
17.094,0.039286
17.098,0.049808
17.102,0.041795
17.105,0.0073137
17.109,0.0086776
17.113,-0.0017138
17.117,-0.0038828
17.121,0.00058377
17.125,0.0036084
17.129,-0.0072139
17.133,0.012399
17.137,0.046726
17.141,0.021841
17.145,0.01542
17.148,0.018447
17.152,0.038927
17.156,0.036474
17.16,0.023923
17.164,0.022263
17.168,0.012814
17.172,0.011299
17.176,0.010938
17.18,0.004663
17.184,-0.0078863
17.188,-0.015387
17.191,-0.0070929
17.195,-0.00024117
17.199,0.017213
17.203,0.058683
17.207,0.060919
17.211,0.049091
17.215,0.022623
17.219,0.028177
17.223,0.04902
17.227,0.052266
17.23,0.055367
17.234,0.0069739
17.238,0.022119
17.242,0.040222
17.246,0.02724
17.25,0.026878
17.254,0.032648
17.258,0.022405
17.262,0.0175
17.266,0.022908
17.27,0.022185
17.273,0.018288
17.277,0.016844
17.281,0.02701
17.285,0.057082
17.289,0.051093
17.293,0.022745
17.297,0.016899
17.301,0.029155
17.305,0.022515
17.309,0.031092
17.313,0.016806
17.316,-0.015871
17.32,0.0040993
17.324,-0.0064379
17.328,0.0022086
17.332,3.6331e-05
17.336,-0.022547
17.34,-5.4871e-05
17.344,-0.032159
17.348,-0.01854
17.352,-0.00095379
17.355,-0.01366
17.359,-0.0090572
17.363,-0.014769
17.367,0.018609
17.371,0.030205
17.375,0.024924
17.379,0.033273
17.383,0.029865
17.387,0.028115
17.391,0.0093441
17.395,-0.017434
17.398,-0.02135
17.402,-0.0033416
17.406,-0.0019946
17.41,0.0054817
17.414,-0.00031331
17.418,-0.0076239
17.422,-0.041404
17.426,-0.049582
17.43,-0.011027
17.434,-0.009182
17.438,-0.0025784
17.441,-0.0071548
17.445,-0.01029
17.449,-0.0041946
17.453,-0.019521
17.457,-0.016962
17.461,-0.010654
17.465,-0.015526
17.469,-0.024077
17.473,-0.031981
17.477,-0.038227
17.48,-0.012164
17.484,-0.0079552
17.488,-0.008652
17.492,0.0060117
17.496,0.011875
17.5,0.01954
17.504,0.014583
17.508,0.0047194
17.512,-0.012646
17.516,-0.017031
17.52,-0.025529
17.523,-0.0040249
17.527,-0.0032218
17.531,-0.0081178
17.535,-0.010419
17.539,0.0019909
17.543,0.0079083
17.547,0.010939
17.551,0.0066119
17.555,-0.0021163
17.559,-0.014452
17.563,-0.0068125
17.566,0.00032077
17.57,-0.010362
17.574,-0.019315
17.578,-0.0035325
17.582,0.029125
17.586,0.020238
17.59,-0.003724
17.594,0.0078681
17.598,0.0090007
17.602,-0.0017687
17.605,0.026766
17.609,0.045851
17.613,0.078998
17.617,0.099305
17.621,0.10562
17.625,0.10219
17.629,0.11557
17.633,0.13443
17.637,0.1077
17.641,0.09244
17.645,0.14649
17.648,0.17125
17.652,0.17581
17.656,0.16833
17.66,0.15003
17.664,0.14723
17.668,0.12821
17.672,0.10478
17.676,0.095701
17.68,0.10032
17.684,0.091096
17.688,0.096291
17.691,0.10422
17.695,0.11432
17.699,0.1133
17.703,0.076873
17.707,0.050106
17.711,0.047641
17.715,0.019499
17.719,0.034627
17.723,0.011095
17.727,-0.010997
17.73,-0.020831
17.734,-0.015233
17.738,-0.0050222
17.742,0.014706
17.746,0.027869
17.75,0.021772
17.754,0.019063
17.758,0.01801
17.762,0.027123
17.766,-4.4077e-05
17.77,-0.025555
17.773,-0.00051093
17.777,0.013496
17.781,0.022667
17.785,-0.0019886
17.789,0.012154
17.793,-0.0011118
17.797,-0.026569
17.801,-0.0091165
17.805,0.022325
17.809,0.15625
17.813,0.4378
17.816,0.79544
17.82,1.2608
17.824,1.5559
17.828,1.6532
17.832,1.401
17.836,0.75179
17.84,0.47467
17.844,0.049557
17.848,-0.27452
17.852,-0.37018
17.855,-0.40729
17.859,-0.37999
17.863,-0.26839
17.867,-0.12008
17.871,-0.03228
17.875,0.04138
17.879,0.08482
17.883,0.12342
17.887,0.11522
17.891,0.11639
17.895,0.11792
17.898,0.14187
17.902,0.13979
17.906,0.15198
17.91,0.15393
17.914,0.15812
17.918,0.14398
17.922,0.15451
17.926,0.15487
17.93,0.14058
17.934,0.14504
17.938,0.15188
17.941,0.14588
17.945,0.14327
17.949,0.14318
17.953,0.14439
17.957,0.15201
17.961,0.16886
17.965,0.1485
17.969,0.14775
17.973,0.1677
17.977,0.19378
17.98,0.20406
17.984,0.21195
17.988,0.20817
17.992,0.18837
17.996,0.1845
18,0.1872
18.004,0.21348
18.008,0.2386
18.012,0.29099
18.016,0.30666
18.02,0.31894
18.023,0.34297
18.027,0.34047
18.031,0.34596
18.035,0.35694
18.039,0.38529
18.043,0.42872
18.047,0.49046
18.051,0.52393
18.055,0.50086
18.059,0.51132
18.063,0.53165
18.066,0.55791
18.07,0.5729
18.074,0.53136
18.078,0.55306
18.082,0.60765
18.086,0.59185
18.09,0.58671
18.094,0.59839
18.098,0.58582
18.102,0.53554
18.105,0.49492
18.109,0.44146
18.113,0.40783
18.117,0.38372
18.121,0.34172
18.125,0.25782
18.129,0.20789
18.133,0.19574
18.137,0.15309
18.141,0.11051
18.145,0.076291
18.148,0.047554
18.152,0.02783
18.156,0.010775
18.16,-0.018543
18.164,-0.014543
18.168,-0.020135
18.172,-0.020392
18.176,-0.024256
18.18,-0.024516
18.184,-0.025858
18.188,-0.02612
18.191,-0.03684
18.195,-0.012728
18.199,-0.025398
18.203,-0.074274
18.207,-0.078148
18.211,-0.040409
18.215,-0.024524
18.219,-0.037344
18.223,-0.027014
18.227,-0.037168
18.23,-0.042203
18.234,-0.034473
18.238,-0.023498
18.242,-0.020963
18.246,-0.011
18.25,-0.040345
18.254,-0.040914
18.258,-0.019486
18.262,-0.00087302
18.266,0.0093013
18.27,0.0069976
18.273,-0.0028798
18.277,-0.0048969
18.281,0.0077259
18.285,0.011116
18.289,0.0025335
18.293,0.01299
18.297,-0.010307
18.301,-0.01132
18.305,0.0051206
18.309,-0.006856
18.313,-0.016237
18.316,-0.0081652
18.32,-0.023606
18.324,-0.016689
18.328,-0.058023
18.332,-0.010865
18.336,0.014873
18.34,0.01068
18.344,0.025022
18.348,0.031429
18.352,0.021536
18.355,0.02073
18.359,0.015163
18.363,0.011904
18.367,-0.0056362
18.371,-0.022888
18.375,-0.016485
18.379,-0.033955
18.383,-0.080057
18.387,-0.065145
18.391,-0.039271
18.395,-0.043545
18.398,-0.031663
18.402,-0.028076
18.406,-0.037039
18.41,-0.038934
18.414,-0.056913
18.418,-0.064362
18.422,-0.052916
18.426,-0.037071
18.43,-0.045675
18.434,-0.071301
18.438,-0.085603
18.441,-0.089737
18.445,-0.087381
18.449,-0.056752
18.453,-0.057137
18.457,-0.054132
18.461,-0.044131
18.465,-0.046536
18.469,-0.054854
18.473,-0.073126
18.477,-0.083897
18.48,-0.078153
18.484,-0.064115
18.488,-0.10763
18.492,-0.11068
18.496,-0.092536
18.5,-0.053472
18.504,-0.058691
18.508,-0.07819
18.512,-0.068912
18.516,-0.073843
18.52,-0.07221
18.523,-0.079593
18.527,-0.065411
18.531,-0.062553
18.535,-0.065825
18.539,-0.077751
18.543,-0.079292
18.547,-0.099224
18.551,-0.078984
18.555,-0.063792
18.559,-0.074203
18.563,-0.06543
18.566,-0.068413
18.57,-0.053221
18.574,-0.060819
18.578,-0.044256
18.582,-0.051061
18.586,-0.10042
18.59,-0.11624
18.594,-0.08258
18.598,-0.065511
18.602,-0.045629
18.605,-0.049619
18.609,-0.052744
18.613,-0.050748
18.617,-0.050698
18.621,-0.06702
18.625,-0.068773
18.629,-0.046149
18.633,-0.041193
18.637,-0.043162
18.641,-0.08083
18.645,-0.017671
18.648,0.0602
18.652,0.076841
18.656,0.070476
18.66,0.066923
18.664,0.054933
18.668,0.074244
18.672,0.081872
18.676,0.09354
18.68,0.11155
18.684,0.14522
18.688,0.15011
18.691,0.12024
18.695,0.086038
18.699,0.065759
18.703,0.071588
18.707,0.069773
18.711,0.056781
18.715,0.045519
18.719,0.023801
18.723,0.041966
18.727,0.050324
18.73,0.017934
18.734,-0.0069547
18.738,-0.024847
18.742,-0.02204
18.746,-0.0094951
18.75,-0.02414
18.754,-0.032364
18.758,-0.027102
18.762,-0.029483
18.766,-0.034676
18.77,-0.047442
18.773,-0.065399
18.777,-0.030706
18.781,-0.0035854
18.785,-0.0024996
18.789,-0.022833
18.793,-0.00025328
18.797,-0.012291
18.801,-0.0071626
18.805,-0.018693
18.809,-0.027843
18.813,-0.035189
18.816,-0.026956
18.82,-0.060408
18.824,-0.082464
18.828,-0.007299
18.832,0.080056
18.836,0.22345
18.84,0.47301
18.844,0.8808
18.848,1.3559
18.852,1.5737
18.855,1.5969
18.859,1.4042
18.863,0.90535
18.867,0.37312
18.871,-0.058358
18.875,-0.34148
18.879,-0.42382
18.883,-0.44665
18.887,-0.4022
18.891,-0.29081
18.895,-0.16875
18.898,-0.043229
18.902,0.018684
18.906,0.045763
18.91,0.050196
18.914,0.069127
18.918,0.093973
18.922,0.1199
18.926,0.1361
18.93,0.14097
18.934,0.12853
18.938,0.11379
18.941,0.12227
18.945,0.12101
18.949,0.11738
18.953,0.10639
18.957,0.1117
18.961,0.12307
18.965,0.14908
18.969,0.15324
18.973,0.16122
18.977,0.15904
18.98,0.15166
18.984,0.17515
18.988,0.18126
18.992,0.19993
18.996,0.19948
19,0.20119
19.004,0.18437
19.008,0.18248
19.012,0.22437
19.016,0.24722
19.02,0.24988
19.023,0.25615
19.027,0.26696
19.031,0.26507
19.035,0.28014
19.039,0.28727
19.043,0.28612
19.047,0.30883
19.051,0.34453
19.055,0.34359
19.059,0.35397
19.063,0.3834
19.066,0.41326
19.07,0.42285
19.074,0.43165
19.078,0.44724
19.082,0.48027
19.086,0.51259
19.09,0.52976
19.094,0.5416
19.098,0.58264
19.102,0.59095
19.105,0.56175
19.109,0.57265
19.113,0.5216
19.117,0.49673
19.121,0.50807
19.125,0.56903
19.129,0.59883
19.133,0.56791
19.137,0.50287
19.141,0.43604
19.145,0.4132
19.148,0.37593
19.152,0.30124
19.156,0.25539
19.16,0.20745
19.164,0.17596
19.168,0.12998
19.172,0.099641
19.176,0.061229
19.18,0.035006
19.184,0.041095
19.188,0.027063
19.191,0.0026466
19.195,-0.026817
19.199,-0.028658
19.203,-0.069443
19.207,-0.11924
19.211,-0.063526
19.215,-0.039904
19.219,-0.031931
19.223,-0.020062
19.227,0.0080352
19.23,0.012405
19.234,-0.033132
19.238,-0.023927
19.242,-0.031959
19.246,-0.035518
19.25,-0.054655
19.254,-0.045086
19.258,-0.04994
19.262,-0.024647
19.266,-0.0037518
19.27,-0.025263
19.273,-0.022036
19.277,-0.013615
19.281,-0.011828
19.285,-0.030306
19.289,-0.044456
19.293,-0.042811
19.297,-0.023422
19.301,-0.036343
19.305,-0.050777
19.309,-0.041915
19.313,-0.050289
19.316,-0.041714
19.32,-0.062923
19.324,-0.072016
19.328,-0.055071
19.332,-0.025432
19.336,-0.020818
19.34,-0.057889
19.344,-0.066616
19.348,-0.053056
19.352,-0.057886
19.355,-0.064518
19.359,-0.050378
19.363,-0.046406
19.367,-0.048996
19.371,-0.05721
19.375,-0.062106
19.379,-0.076016
19.383,-0.06699
19.387,-0.072316
19.391,-0.083626
19.395,-0.087868
19.398,-0.092758
19.402,-0.10262
19.406,-0.10765
19.41,-0.10699
19.414,-0.12536
19.418,-0.11683
19.422,-0.098634
19.426,-0.10878
19.43,-0.1146
19.434,-0.092003
19.438,-0.079789
19.441,-0.074787
19.445,-0.062788
19.449,-0.07163
19.453,-0.10687
19.457,-0.14369
19.461,-0.11755
19.465,-0.09639
19.469,-0.096573
19.473,-0.098414
19.477,-0.097296
19.48,-0.15135
19.484,-0.13494
19.488,-0.10685
19.492,-0.093538
19.496,-0.10215
19.5,-0.12353
19.504,-0.13409
19.508,-0.13058
19.512,-0.12203
19.516,-0.11095
19.52,-0.11343
19.523,-0.12297
19.527,-0.12386
19.531,-0.14667
19.535,-0.13378
19.539,-0.12594
19.543,-0.11832
19.547,-0.11819
19.551,-0.11611
19.555,-0.13885
19.559,-0.13785
19.563,-0.11241
19.566,-0.099655
19.57,-0.12087
19.574,-0.1136
19.578,-0.10459
19.582,-0.11426
19.586,-0.11398
19.59,-0.12596
19.594,-0.12849
19.598,-0.12806
19.602,-0.11833
19.605,-0.10311
19.609,-0.057964
19.613,-0.058973
19.617,-0.054717
19.621,-0.015336
19.625,-0.0032884
19.629,0.028233
19.633,0.058025
19.637,0.075413
19.641,0.06929
19.645,0.062087
19.648,0.086546
19.652,0.095284
19.656,0.13698
19.66,0.15993
19.664,0.15749
19.668,0.12368
19.672,0.13199
19.676,0.13287
19.68,0.13549
19.684,0.14438
19.688,0.10719
19.691,0.097471
19.695,0.074054
19.699,0.09896
19.703,0.12091
19.707,0.084226
19.711,0.079133
19.715,0.067621
19.719,0.02445
19.723,0.046766
19.727,0.06151
19.73,0.072577
19.734,0.066985
19.738,0.040046
19.742,0.036692
19.746,0.042571
19.75,0.038137
19.754,-0.0025005
19.758,0.026028
19.762,0.042657
19.766,0.020197
19.77,-2.5734e-05
19.773,-0.0024335
19.777,0.027038
19.781,0.034152
19.785,0.044008
19.789,0.039946
19.793,0.048866
19.797,0.050936
19.801,0.0041082
19.805,-0.0058645
19.809,0.029745
19.813,0.19049
19.816,0.42991
19.82,0.78062
19.824,1.2254
19.828,1.3998
19.832,1.4984
19.836,1.4013
19.84,0.72105
19.844,0.48859
19.848,-0.073246
19.852,-0.18555
19.855,-0.32418
19.859,-0.3909
19.863,-0.34302
19.867,-0.22612
19.871,-0.16526
19.875,-0.057513
19.879,0.021021
19.883,0.069265
19.887,0.095439
19.891,0.10409
19.895,0.093915
19.898,0.098382
19.902,0.12074
19.906,0.14446
19.91,0.15383
19.914,0.19177
19.918,0.21138
19.922,0.20655
19.926,0.19941
19.93,0.20214
19.934,0.23287
19.938,0.2382
19.941,0.23517
19.945,0.22032
19.949,0.22558
19.953,0.21844
19.957,0.22003
19.961,0.22183
19.965,0.24858
19.969,0.28183
19.973,0.30448
19.977,0.30369
19.98,0.31046
19.984,0.31869
19.988,0.32799
19.992,0.34104
19.996,0.36859
20,0.38691
20.004,0.36268
20.008,0.36989
20.012,0.37443
20.016,0.39275
20.02,0.41778
20.023,0.41525
20.027,0.45528
20.031,0.44186
20.035,0.45311
20.039,0.45455
20.043,0.46724
20.047,0.52421
20.051,0.51873
20.055,0.51814
20.059,0.60021
20.063,0.65733
20.066,0.66995
20.07,0.6879
20.074,0.70809
20.078,0.72099
20.082,0.72552
20.086,0.71203
20.09,0.7188
20.094,0.73033
20.098,0.70638
20.102,0.69721
20.105,0.68616
20.109,0.64179
20.113,0.60031
20.117,0.54296
20.121,0.48756
20.125,0.44434
20.129,0.41454
20.133,0.37825
20.137,0.3532
20.141,0.30494
20.145,0.26013
20.148,0.23775
20.152,0.21328
20.156,0.20814
20.16,0.19982
20.164,0.18523
20.168,0.19069
20.172,0.17847
20.176,0.17044
20.18,0.1482
20.184,0.1432
20.188,0.14504
20.191,0.13874
20.195,0.14678
20.199,0.15209
20.203,0.12839
20.207,0.12865
20.211,0.14217
20.215,0.14877
20.219,0.16063
20.223,0.15395
20.227,0.13105
20.23,0.13937
20.234,0.14019
20.238,0.14274
20.242,0.12979
20.246,0.12411
20.25,0.13423
20.254,0.13858
20.258,0.10557
20.262,0.11828
20.266,0.14188
20.27,0.14644
20.273,0.15806
20.277,0.13752
20.281,0.12065
20.285,0.085032
20.289,0.074292
20.293,0.1232
20.297,0.14657
20.301,0.14823
20.305,0.13467
20.309,0.1113
20.313,0.11699
20.316,0.10451
20.32,0.085609
20.324,0.094616
20.328,0.12244
20.332,0.12676
20.336,0.12754
20.34,0.11995
20.344,0.12758
20.348,0.10801
20.352,0.097532
20.355,0.076737
20.359,0.078298
20.363,0.08267
20.367,0.085308
20.371,0.065155
20.375,0.062236
20.379,0.074893
20.383,0.078605
20.387,0.061688
20.391,0.058689
20.395,0.068092
20.398,0.070498
20.402,0.082204
20.406,0.06131
20.41,0.036663
20.414,0.017495
20.418,0.04405
20.422,0.070458
20.426,0.066573
20.43,0.071196
20.434,0.056415
20.438,0.048629
20.441,0.058437
20.445,0.06067
20.449,0.064848
20.453,0.063975
20.457,0.058917
20.461,0.058616
20.465,0.058745
20.469,0.047548
20.473,0.046014
20.477,0.042457
20.48,0.057433
20.484,0.062165
20.488,0.046772
20.492,0.037002
20.496,0.028239
20.5,0.039668
20.504,0.065734
20.508,0.040736
20.512,0.048767
20.516,0.052539
20.52,0.056237
20.523,0.041901
20.527,0.047107
20.531,0.042935
20.535,0.017268
20.539,-0.011576
20.543,0.016626
20.547,0.061412
20.551,0.071577
20.555,0.060752
20.559,0.033697
20.563,0.035919
20.566,0.057972
20.57,0.083556
20.574,0.099906
20.578,0.085456
20.582,0.092495
20.586,0.10141
20.59,0.12676
20.594,0.13783
20.598,0.15012
20.602,0.14315
20.605,0.13589
20.609,0.10822
20.613,0.12533
20.617,0.15354
20.621,0.18269
20.625,0.23304
20.629,0.2091
20.633,0.17275
20.637,0.15854
20.641,0.14007
20.645,0.14554
20.648,0.14048
20.652,0.094232
20.656,0.078057
20.66,0.072624
20.664,0.097478
20.668,0.090307
20.672,0.056592
20.676,0.02958
20.68,0.021389
20.684,0.021704
20.688,0.0036243
20.691,-0.00039534
20.695,0.0038753
20.699,-0.030443
20.703,-0.05712
20.707,-0.03245
20.711,-0.012256
20.715,0.0069969
20.719,0.01586
20.723,-0.012134
20.727,-0.015106
20.73,-0.00034043
20.734,-0.0041138
20.738,-0.036307
20.742,-0.057325
20.746,-0.042863
20.75,-0.035689
20.754,0.01598
20.758,0.023579
20.762,0.045959
20.766,0.033285
20.77,0.061356
20.773,0.10579
20.777,0.22156
20.781,0.47471
20.785,0.8858
20.789,1.279
20.793,1.4258
20.797,1.3874
20.801,1.0013
20.805,0.49977
20.809,0.091466
20.813,-0.08951
20.816,-0.30273
20.82,-0.36413
20.824,-0.43275
20.828,-0.37466
20.832,-0.26226
20.836,-0.13284
20.84,-0.020228
20.844,0.051414
20.848,0.066581
20.852,0.07951
20.855,0.12864
20.859,0.16104
20.863,0.14504
20.867,0.16106
20.871,0.14584
20.875,0.1594
20.879,0.20462
20.883,0.23217
20.887,0.22546
20.891,0.2028
20.895,0.1707
20.898,0.19153
20.902,0.23298
20.906,0.2463
20.91,0.22811
20.914,0.20169
20.918,0.21782
20.922,0.23308
20.926,0.26284
20.93,0.28516
20.934,0.28707
20.938,0.29093
20.941,0.27834
20.945,0.27974
20.949,0.30458
20.953,0.31427
20.957,0.31559
20.961,0.31287
20.965,0.33907
20.969,0.3471
20.973,0.35216
20.977,0.35672
20.98,0.39791
20.984,0.40391
20.988,0.42534
20.992,0.43313
20.996,0.4648
21,0.48781
21.004,0.50808
21.008,0.50995
21.012,0.53649
21.016,0.54709
21.02,0.59332
21.023,0.61242
21.027,0.64112
21.031,0.64969
21.035,0.66115
21.039,0.64772
21.043,0.64288
21.047,0.65238
21.051,0.67696
21.055,0.65718
21.059,0.65918
21.063,0.6601
21.066,0.63159
21.07,0.6025
21.074,0.56699
21.078,0.53812
21.082,0.51127
21.086,0.46227
21.09,0.39979
21.094,0.34177
21.098,0.28628
21.102,0.2755
21.105,0.27554
21.109,0.25027
21.113,0.23055
21.117,0.19561
21.121,0.15735
21.125,0.13597
21.129,0.11942
21.133,0.10409
21.137,0.10477
21.141,0.093341
21.145,0.10167
21.148,0.072638
21.152,0.057958
21.156,0.051284
21.16,0.053335
21.164,0.059209
21.168,0.06804
21.172,0.067061
21.176,0.06226
21.18,0.06871
21.184,0.059869
21.188,0.050452
21.191,0.052429
21.195,0.066235
21.199,0.077227
21.203,0.061967
21.207,0.075989
21.211,0.084024
21.215,0.071866
21.219,0.073338
21.223,0.067022
21.227,0.077365
21.23,0.087781
21.234,0.075624
21.238,0.081785
21.242,0.081888
21.246,0.068072
21.25,0.054401
21.254,0.04448
21.258,0.041844
21.262,0.057888
21.266,0.045516
21.27,0.039492
21.273,0.042051
21.277,0.072305
21.281,0.027553
21.285,0.0095583
21.289,0.033323
21.293,0.050525
21.297,0.056694
21.301,0.072023
21.305,0.070115
21.309,0.049457
21.313,0.030602
21.316,0.045573
21.32,0.040352
21.324,0.016884
21.328,0.015631
21.332,0.006301
21.336,0.004545
21.34,-0.0054318
21.344,-0.0097821
21.348,-0.0038899
21.352,0.0057537
21.355,-0.008618
21.359,0.00037894
21.363,-0.027405
21.367,-0.024031
21.371,-0.012145
21.375,-0.013529
21.379,0.0062932
21.383,0.0041914
21.387,0.0090147
21.391,-0.0017387
21.395,-0.022732
21.398,-0.021582
21.402,-0.012209
21.406,-0.021514
21.41,-0.013869
21.414,-0.0044184
21.418,-0.010256
21.422,-0.02756
21.426,-0.0054833
21.43,0.011402
21.434,-0.0016406
21.438,0.0066663
21.441,-0.033707
21.445,-0.022584
21.449,-0.024945
21.453,-0.020092
21.457,-0.039037
21.461,-0.059063
21.465,-0.04865
21.469,-0.024461
21.473,-0.0077693
21.477,-0.012208
21.48,-0.015273
21.484,-0.018337
21.488,-0.018874
21.492,-0.022726
21.496,-0.023258
21.5,-0.0473
21.504,-0.044943
21.508,-0.040708
21.512,-0.04426
21.516,-0.03663
21.52,-0.052942
21.523,-0.059804
21.527,-0.020866
21.531,-0.0016142
21.535,-0.02758
21.539,-0.021089
21.543,-0.021807
21.547,0.0030087
21.551,0.018091
21.555,0.02618
21.559,0.049057
21.563,0.078283
21.566,0.067052
21.57,0.068518
21.574,0.06941
21.578,0.054005
21.582,0.077116
21.586,0.098427
21.59,0.1509
21.594,0.16911
21.598,0.16519
21.602,0.13401
21.605,0.11156
21.609,0.10887
21.613,0.11737
21.617,0.089592
21.621,0.062033
21.625,0.036065
21.629,0.023948
21.633,0.017892
21.637,-0.034246
21.641,-0.046425
21.645,-0.039055
21.648,-0.073657
21.652,-0.074574
21.656,-0.062506
21.66,-0.057358
21.664,-0.040955
21.668,-0.029597
21.672,-0.01809
21.676,-0.03377
21.68,0.010343
21.684,0.0031089
21.688,-0.0073665
21.691,0.010434
21.695,0.012804
21.699,-0.00032817
21.703,-0.009778
21.707,-0.06531
21.711,-0.047129
21.715,-0.022309
21.719,-0.04321
21.723,-0.032663
21.727,-0.043387
21.73,-0.062691
21.734,-0.0053246
21.738,0.034159
21.742,0.13791
21.746,0.35547
21.75,0.66902
21.754,0.86654
21.758,1.209
21.762,1.2914
21.766,1.2054
21.77,0.7901
21.773,0.35679
21.777,-0.0098054
21.781,-0.2768
21.785,-0.36283
21.789,-0.45788
21.793,-0.43003
21.797,-0.32299
21.801,-0.23556
21.805,-0.09086
21.809,0.036316
21.813,0.04024
21.816,0.077848
21.82,0.078532
21.824,0.06559
21.828,0.080777
21.832,0.095319
21.836,0.11758
21.84,0.11807
21.844,0.10918
21.848,0.13152
21.852,0.12423
21.855,0.11982
21.859,0.11852
21.863,0.1253
21.867,0.14347
21.871,0.17269
21.875,0.19116
21.879,0.19781
21.883,0.18073
21.887,0.16877
21.891,0.18632
21.895,0.22536
21.898,0.22329
21.902,0.2133
21.906,0.16602
21.91,0.19101
21.914,0.23836
21.918,0.24618
21.922,0.25337
21.926,0.24519
21.93,0.26089
21.934,0.28171
21.938,0.2848
21.941,0.29408
21.945,0.32588
21.949,0.33611
21.953,0.348
21.957,0.35968
21.961,0.37994
21.965,0.39076
21.969,0.4049
21.973,0.42027
21.977,0.45165
21.98,0.49262
21.984,0.50554
21.988,0.4995
21.992,0.50882
21.996,0.52889
22,0.54709
22.004,0.54041
22.008,0.55976
22.012,0.56087
22.016,0.59574
22.02,0.58329
22.023,0.58513
22.027,0.58582
22.031,0.57894
22.035,0.54732
22.039,0.48649
22.043,0.46584
22.047,0.44331
22.051,0.41077
22.055,0.36062
22.059,0.31178
22.063,0.26265
22.066,0.21136
22.07,0.18913
22.074,0.1535
22.078,0.13236
22.082,0.13105
22.086,0.11453
22.09,0.093327
22.094,0.081139
22.098,0.055105
22.102,0.025178
22.105,0.026121
22.109,0.038822
22.113,0.051741
22.117,0.044828
22.121,0.053351
22.125,0.020333
22.129,0.020493
22.133,0.039622
22.137,0.047503
22.141,0.022208
22.145,0.0096814
22.148,0.019946
22.152,0.057403
22.156,0.032691
22.16,0.025796
22.164,0.043063
22.168,0.037901
22.172,0.015936
22.176,0.017917
22.18,0.018385
22.184,0.010705
22.188,0.01983
22.191,0.029822
22.195,0.030151
22.199,0.035602
22.203,0.044155
22.207,0.021481
22.211,0.033282
22.215,0.052369
22.219,0.040372
22.223,0.035372
22.227,0.025902
22.23,0.02754
22.234,0.053556
22.238,0.059234
22.242,0.049768
22.246,0.049391
22.25,0.068415
22.254,0.029959
22.258,0.041196
22.262,0.043996
22.266,0.010519
22.27,0.036183
22.273,0.015473
22.277,0.0027703
22.281,0.037308
22.285,0.053455
22.289,0.062679
22.293,0.071327
22.297,0.06483
22.301,0.040809
22.305,0.066263
22.309,0.065105
22.313,0.059188
22.316,0.050242
22.32,0.036249
22.324,0.021102
22.328,0.0043688
22.332,0.012302
22.336,-0.00096829
22.34,0.013817
22.344,0.032209
22.348,0.024278
22.352,0.030266
22.355,0.021758
22.359,0.038349
22.363,0.048665
22.367,0.020253
22.371,-0.0037599
22.375,0.010957
22.379,0.032958
22.383,0.031449
22.387,0.027919
22.391,0.025617
22.395,0.012352
22.398,0.021156
22.402,0.00096731
22.406,0.017994
22.41,0.029178
22.414,0.025506
22.418,0.0052458
22.422,-0.0031865
22.426,0.010018
22.43,0.024015
22.434,0.017314
22.438,0.015517
22.441,0.0070123
22.445,0.024111
22.449,0.03443
22.453,0.028666
22.457,0.023695
22.461,-0.00053312
22.465,0.0077658
22.469,0.027388
22.473,0.013256
22.477,-0.0073663
22.48,0.012111
22.484,0.011393
22.488,0.02171
22.492,0.0145
22.496,0.020273
22.5,0.010827
22.504,0.00679
22.508,-0.0025124
22.512,0.0099656
22.516,0.031675
22.52,0.041411
22.523,0.053815
22.527,0.079994
22.531,0.11201
22.535,0.12305
22.539,0.10552
22.543,0.097654
22.547,0.10594
22.551,0.12245
22.555,0.11791
22.559,0.13687
22.563,0.17588
22.566,0.22203
22.57,0.21135
22.574,0.1765
22.578,0.14692
22.582,0.13862
22.586,0.11379
22.59,0.10246
22.594,0.09819
22.598,0.078774
22.602,0.04515
22.605,0.050543
22.609,0.057954
22.613,0.029158
22.617,-0.0048304
22.621,0.0056066
22.625,-0.0072527
22.629,0.0095288
22.633,0.015635
22.637,-0.00018454
22.641,-0.01752
22.645,0.00055511
22.648,0.010335
22.652,-0.0015949
22.656,0.01525
22.66,0.018824
22.664,0.021242
22.668,0.014284
22.672,-3.2633e-05
22.676,0.0132
22.68,0.0013331
22.684,0.013481
22.688,-0.035098
22.691,-0.029083
22.695,-0.01153
22.699,-0.0097724
22.703,-0.019051
22.707,-0.010589
22.711,0.00025188
22.715,0.06475
22.719,0.20375
22.723,0.43044
22.727,0.79237
22.73,1.1256
22.734,1.2215
22.738,1.1831
22.742,0.87991
22.746,0.44618
22.75,0.10707
22.754,-0.18963
22.758,-0.32377
22.762,-0.40634
22.766,-0.40179
22.77,-0.36645
22.773,-0.25055
22.777,-0.13652
22.781,-0.03065
22.785,0.049908
22.789,0.08171
22.793,0.11503
22.797,0.11076
22.801,0.12699
22.805,0.14191
22.809,0.13548
22.813,0.16886
22.816,0.17591
22.82,0.15109
22.824,0.15028
22.828,0.17486
22.832,0.19691
22.836,0.19589
22.84,0.19536
22.844,0.19693
22.848,0.20772
22.852,0.2059
22.855,0.18178
22.859,0.18082
22.863,0.18829
22.867,0.21574
22.871,0.22033
22.875,0.24352
22.879,0.24948
22.883,0.25543
22.887,0.24602
22.891,0.2462
22.895,0.27711
22.898,0.30693
22.902,0.28446
22.906,0.30302
22.91,0.31337
22.914,0.30741
22.918,0.30737
22.922,0.30819
22.926,0.3393
22.93,0.35721
22.934,0.36235
22.938,0.36923
22.941,0.40279
22.945,0.42509
22.949,0.44725
22.953,0.44172
22.957,0.48327
22.961,0.50464
22.965,0.53076
22.969,0.53928
22.973,0.54305
22.977,0.55409
22.98,0.57833
22.984,0.59443
22.988,0.59429
22.992,0.60302
22.996,0.62971
23,0.62972
23.004,0.61248
23.008,0.59236
23.012,0.5783
23.016,0.53315
23.02,0.48548
23.023,0.44573
23.027,0.40238
23.031,0.34887
23.035,0.29333
23.039,0.25834
23.043,0.22097
23.047,0.19998
23.051,0.19275
23.055,0.16447
23.059,0.15169
23.063,0.14295
23.066,0.11791
23.07,0.11645
23.074,0.098836
23.078,0.082446
23.082,0.070382
23.086,0.06654
23.09,0.049497
23.094,0.077097
23.098,0.077146
23.102,0.069693
23.105,0.073057
23.109,0.04483
23.113,0.057784
23.117,0.072468
23.121,0.077342
23.125,0.076013
23.129,0.083193
23.133,0.081068
23.137,0.083486
23.141,0.072849
23.145,0.075697
23.148,0.085901
23.152,0.085718
23.156,0.054595
23.16,0.056573
23.164,0.056388
23.168,0.092406
23.172,0.081688
23.176,0.075658
23.18,0.078857
23.184,0.069579
23.188,0.069531
23.191,0.058448
23.195,0.098354
23.199,0.081499
23.203,0.060964
23.207,0.065455
23.211,0.078455
23.215,0.098811
23.219,0.084547
23.223,0.07699
23.227,0.083784
23.23,0.091658
23.234,0.10855
23.238,0.08786
23.242,0.065729
23.246,0.053117
23.25,0.070867
23.254,0.070009
23.258,0.073405
23.262,0.077738
23.266,0.061299
23.27,0.04183
23.273,0.054237
23.277,0.038733
23.281,0.055321
23.285,0.052148
23.289,0.038371
23.293,0.040893
23.297,0.058848
23.301,0.065335
23.305,0.05444
23.309,0.045851
23.313,0.044402
23.316,0.029321
23.32,0.033639
23.324,0.043943
23.328,0.044581
23.332,0.028703
23.336,0.012752
23.34,0.0085551
23.344,0.027941
23.348,0.031821
23.352,0.023799
23.355,0.0056073
23.359,0.0011177
23.363,0.017687
23.367,0.032596
23.371,0.043826
23.375,0.045752
23.379,0.043926
23.383,0.040152
23.387,0.027074
23.391,0.013995
23.395,0.010146
23.398,0.030962
23.402,0.010596
23.406,0.024343
23.41,0.048979
23.414,0.01671
23.418,-0.016209
23.422,-0.019631
23.426,0.0068041
23.43,0.041316
23.434,0.028804
23.438,0.013623
23.441,0.0037058
23.445,0.020256
23.449,0.032406
23.453,0.030708
23.457,0.0077337
23.461,0.036397
23.465,0.032533
23.469,0.024269
23.473,0.012181
23.477,0.02346
23.48,0.0034368
23.484,0.017382
23.488,0.048997
23.492,0.043396
23.496,0.06859
23.5,0.088302
23.504,0.11854
23.508,0.1278
23.512,0.14938
23.516,0.13195
23.52,0.11567
23.523,0.084239
23.527,0.12306
23.531,0.1737
23.535,0.20877
23.539,0.20143
23.543,0.17404
23.547,0.15602
23.551,0.15105
23.555,0.11342
23.559,0.10838
23.563,0.072258
23.566,0.074575
23.57,0.056986
23.574,0.071418
23.578,0.080584
23.582,0.071575
23.586,0.045905
23.59,0.035957
23.594,0.018796
23.598,0.016491
23.602,0.024354
23.605,0.014836
23.609,0.0034414
23.613,-0.00088596
23.617,-0.0093971
23.621,-0.020577
23.625,-0.021517
23.629,0.0084823
23.633,0.017205
23.637,0.014172
23.641,0.0076034
23.645,-0.00026386
23.648,0.00023429
23.652,-0.011457
23.656,0.026976
23.66,0.044853
23.664,0.020755
23.668,-0.0096186
23.672,0.010925
23.676,0.014159
23.68,0.029148
23.684,0.062455
23.688,0.12951
23.691,0.30137
23.695,0.58897
23.699,0.99298
23.703,1.1782
23.707,1.2066
23.711,1.1406
23.715,0.78304
23.719,0.32742
23.723,0.014107
23.727,-0.19398
23.73,-0.2931
23.734,-0.36914
23.738,-0.36765
23.742,-0.30442
23.746,-0.17787
23.75,-0.086879
23.754,0.01558
23.758,0.049451
23.762,0.074595
23.766,0.076226
23.77,0.067255
23.773,0.071697
23.777,0.053493
23.781,0.04488
23.785,0.052494
23.789,0.070926
23.793,0.084309
23.797,0.079877
23.801,0.078112
23.805,0.074905
23.809,0.086842
23.813,0.082408
23.816,0.092757
23.82,0.07534
23.824,0.041549
23.828,0.041728
23.832,0.022866
23.836,-0.02636
23.84,-0.053157
23.844,-0.061058
23.848,-0.077254
23.852,-0.085373
23.855,-0.10943
23.859,-0.10464
23.863,-0.081895
23.867,-0.067082
23.871,-0.056597
23.875,-0.046617
23.879,-0.010313
23.883,0.066162
23.887,0.055152
23.891,0.078761
23.895,0.14521
23.898,0.23019
23.902,0.28243
23.906,0.29919
23.91,0.29921
23.914,0.31365
23.918,0.3506
23.922,0.37687
23.926,0.37999
23.93,0.40641
23.934,0.44653
23.938,0.45296
23.941,0.46784
23.945,0.4618
23.949,0.47905
23.953,0.49464
23.957,0.52365
23.961,0.53398
23.965,0.54712
23.969,0.53891
23.973,0.51606
23.977,0.50728
23.98,0.4858
23.984,0.47535
23.988,0.46519
23.992,0.41941
23.996,0.37636
24,0.32213
24.004,0.31233
24.008,0.27441
24.012,0.24838
24.016,0.19502
24.02,0.13906
24.023,0.10812
24.027,0.099185
24.031,0.078419
24.035,0.05484
24.039,0.038401
24.043,0.020952
24.047,0.022398
24.051,0.0059569
24.055,0.0061757
24.059,0.014616
24.063,0.033369
24.066,0.03337
24.07,0.030197
24.074,0.026664
24.078,0.022697
24.082,0.032072
24.086,0.018295
24.09,-0.0034872
24.094,0.0055979
24.098,0.0089129
24.102,0.039706
24.105,0.037971
24.109,0.046261
24.113,0.048349
24.117,0.037958
24.121,0.029226
24.125,0.026408
24.129,0.029719
24.133,0.045579
24.137,0.053289
24.141,0.043906
24.145,0.033657
24.148,0.033649
24.152,0.043809
24.156,0.04993
24.16,0.057566
24.164,0.053373
24.168,0.047809
24.172,0.036764
24.176,0.042739
24.18,0.040924
24.184,0.025478
24.188,0.031235
24.191,0.029275
24.195,0.035176
24.199,0.047063
24.203,0.01719
24.207,-0.0034507
24.211,-0.00021996
24.215,0.00084679
24.219,-0.00082746
24.223,0.011922
24.227,0.014719
24.23,0.0279
24.234,-0.0079609
24.238,-0.019806
24.242,-0.023502
24.246,-0.043281
24.25,-0.041857
24.254,-0.032789
24.258,-0.041679
24.262,-0.044511
24.266,-0.055493
24.27,-0.063663
24.273,-0.063539
24.277,-0.055843
24.281,-0.059615
24.285,-0.054011
24.289,-0.074948
24.293,-0.077134
24.297,-0.070305
24.301,-0.076963
24.305,-0.072947
24.309,-0.070663
24.313,-0.062609
24.316,-0.054988
24.32,-0.045492
24.324,-0.051287
24.328,-0.050591
24.332,-0.041817
24.336,-0.047035
24.34,-0.03408
24.344,-0.035404
24.348,-0.032329
24.352,-0.028389
24.355,-0.041903
24.359,-0.0283
24.363,-0.016211
24.367,-0.028283
24.371,-0.049083
24.375,-0.03072
24.379,-0.027864
24.383,-0.024936
24.387,-0.031096
24.391,-0.039925
24.395,-0.023511
24.398,-0.0062318
24.402,-0.017657
24.406,-0.0085287
24.41,0.0068743
24.414,0.012685
24.418,-0.0028527
24.422,-0.00043228
24.426,0.013239
24.43,0.037367
24.434,0.037335
24.438,0.039394
24.441,0.034024
24.445,0.036371
24.449,0.042035
24.453,0.068542
24.457,0.11943
24.461,0.15358
24.465,0.20136
24.469,0.18935
24.473,0.19566
24.477,0.17219
24.48,0.20425
24.484,0.21712
24.488,0.25322
24.492,0.27021
24.496,0.31525
24.5,0.32834
24.504,0.30464
24.508,0.26379
24.512,0.23122
24.516,0.1807
24.52,0.17612
24.523,0.16772
24.527,0.1459
24.531,0.11369
24.535,0.12043
24.539,0.11066
24.543,0.060497
24.547,0.029086
24.551,0.022556
24.555,0.0050637
24.559,0.0049526
24.563,0.011981
24.566,-0.0014005
24.57,-0.0039642
24.574,0.0042901
24.578,-0.0069285
24.582,-0.0089879
24.586,-0.003114
24.59,-0.017146
24.594,-0.015383
24.598,-0.022275
24.602,-0.012724
24.605,-0.00035967
24.609,-0.035596
24.613,-0.024819
24.617,-0.017576
24.621,-0.026993
24.625,-0.029631
24.629,0.015548
24.633,-0.0046878
24.637,-0.030549
24.641,-0.0096037
24.645,0.034925
24.648,0.16376
24.652,0.32246
24.656,0.47849
24.66,0.885
24.664,1.1817
24.668,1.1879
24.672,1.0494
24.676,0.65115
24.68,0.26194
24.684,-0.018366
24.688,-0.22323
24.691,-0.34394
24.695,-0.3941
24.699,-0.37706
24.703,-0.30801
24.707,-0.2047
24.711,-0.077665
24.715,0.0019859
24.719,0.040022
24.723,0.058514
24.727,0.057605
24.73,0.050926
24.734,0.075908
24.738,0.059492
24.742,0.045024
24.746,0.06777
24.75,0.07876
24.754,0.080375
24.758,0.08235
24.762,0.11188
24.766,0.11176
24.77,0.09556
24.773,0.10763
24.777,0.14451
24.781,0.14158
24.785,0.13793
24.789,0.15484
24.793,0.17304
24.797,0.15857
24.801,0.15817
24.805,0.17543
24.809,0.1782
24.813,0.19308
24.816,0.22376
24.82,0.22783
24.824,0.22742
24.828,0.19197
24.832,0.21392
24.836,0.21243
24.84,0.22523
24.844,0.23636
24.848,0.24641
24.852,0.23822
24.855,0.27308
24.859,0.29821
24.863,0.31338
24.867,0.32596
24.871,0.3301
24.875,0.34765
24.879,0.37451
24.883,0.40641
24.887,0.42735
24.891,0.44433
24.895,0.46664
24.898,0.46278
24.902,0.46331
24.906,0.49334
24.91,0.51017
24.914,0.50472
24.918,0.50893
24.922,0.50088
24.926,0.52118
24.93,0.56542
24.934,0.52556
24.938,0.50417
24.941,0.46915
24.945,0.46341
24.949,0.43646
24.953,0.38485
24.957,0.33714
24.961,0.31524
24.965,0.29796
24.969,0.24859
24.973,0.17592
24.977,0.15705
24.98,0.1609
24.984,0.12703
24.988,0.081916
24.992,0.057713
24.996,0.052261
